0.18565698
0.187158287
0.188614771
0.190024808
0.191386446
0.192697421
0.193955213
0.19515717
0.196300492
0.197382316
0.198399752
0.199349999
0.200230375
0.201038554
0.201772675
0.202431515
0.203014567
0.203521982
0.203954265
0.20431222
0.204596803
0.204809085
0.204950273
0.205021635
0.205024496
0.204960212
0.204830244
0.204636082
0.204379126
0.204060674
0.203681782
0.203243315
0.20274587
0.202189833
0.201575562
0.200903371
0.200173572
0.199386463
0.198542312
0.197641268
0.196683422
0.195668668
0.194596887
0.193467796
0.192281067
0.191036314
0.189733058
0.188370883
0.186949313
0.185467944
0.183926463
0.182324827
0.180663228
0.178942069
0.177161902
0.175323337
0.173427016
0.171473637
0.169464007
0.167399213
0.16528061
0.163109869
0.16088888
0.158619747
0.156304747
0.153946176
0.151546419
0.149107873
0.146633133
0.144124925
0.141585931
0.139018819
0.136426017
0.133809879
0.131172597
0.128516242
0.125842795
0.123154126
0.120452002
0.117738105
0.115014106
0.112281777
0.10954307
0.106800213
0.104055643
0.101312026
0.09857215
0.095838785
0.093114525
0.090401761
0.087702774
0.085019857
0.082355373
0.079711661
0.077090956
0.074495256
0.071926177
0.069384918
0.066872321
0.064388916
0.061935
0.059510648
0.057115734
0.054749951
0.052412722
0.050103106
0.047819808
0.045561243
0.043325566
0.041110709
0.038914442
0.036734499
0.034568697
0.032415014
0.030271603
0.028136896
0.026009724
0.023889367
0.021775516
0.019668138
0.017567327
0.015473165
0.013385654
0.01130473
0.009230306
0.00716234
0.005100856
0.003045961
0.000997822
-0.001043317
-0.003077127
-0.005103199
-0.007121029
-0.009129893
-0.011128719
-0.013116087
-0.01509038
-0.017049994
-0.018993467
-0.020919489
-0.022826834
-0.024714286
-0.026580635
-0.028424747
-0.030245667
-0.032042731
-0.033815622
-0.035564352
-0.037289042
-0.038989741
-0.040666275
-0.04231824
-0.043945085
-0.045546189
-0.047120903
-0.048668567
-0.050188437
-0.051679689
-0.053141437
-0.05457278
-0.055972829
-0.057340749
-0.058675744
-0.059976973
-0.061243527
-0.062474459
-0.06366884
-0.064825736
-0.065944202
-0.067023344
-0.068062365
-0.069060706
-0.07001809
-0.070934661
-0.071810909
-0.072647676
-0.073445946
-0.074206814
-0.074931487
-0.07562127
-0.076277569
-0.076901816
-0.077495486
-0.078060001
-0.078596674
-0.079106577
-0.079590477
-0.080048829
-0.080481887
-0.080889761
-0.081272416
-0.081629634
-0.081961013
-0.082266055
-0.082544185
-0.082794927
-0.083017915
-0.083212912
-0.08337982
-0.083518654
-0.083629489
-0.083712451
-0.083767772
-0.083795883
-0.0837975
-0.083773576
-0.083725236
-0.083653674
-0.083560094
-0.083445758
-0.083311871
-0.083159566
-0.082989909
-0.082803935
-0.082602657
-0.082387015
-0.082157783
-0.081915528
-0.081660651
-0.081393428
-0.081114002
-0.080822386
-0.080518484
-0.080202095
-0.079872906
-0.079530567
-0.079174764
-0.078805268
-0.078421921
-0.078024648
-0.077613421
-0.077188246
-0.076749206
-0.076296404
-0.075829901
-0.075349703
-0.074855842
-0.074348442
-0.073827773
-0.073294267
-0.072748512
-0.072191268
-0.071623415
-0.071045987
-0.070460245
-0.069867633
-0.069269709
-0.06866809
-0.06806431
-0.067459762
-0.066855587
-0.066252738
-0.065651953
-0.065053746
-0.064458504
-0.063866548
-0.063278183
-0.062693633
-0.062112946
-0.061535973
-0.060962453
-0.060392186
-0.059825111
-0.059261367
-0.058701206
-0.058144923
-0.057592735
-0.057044711
-0.056500763
-0.055960726
-0.0554245
-0.054892153
-0.054363985
-0.053840559
-0.053322691
-0.052811362
-0.052307643
-0.05181263
-0.051327452
-0.050853234
-0.050390996
-0.049941503
-0.049505163
-0.049082
-0.048671659
-0.048273537
-0.047886875
-0.047510862
-0.047144722
-0.04678775
-0.04643932
-0.046098873
-0.045765854
-0.045439631
-0.045119479
-0.044804703
-0.044494689
-0.044188879
-0.043886743
-0.043587681
-0.043290969
-0.04299568
-0.042700723
-0.042404938
-0.042107277
-0.041806951
-0.041503504
-0.041196775
-0.040886763
-0.040573452
-0.040256612
-0.039935723
-0.039610017
-0.039278608
-0.038940612
-0.038595177
-0.038241416
-0.037878342
-0.037504844
-0.037119675
-0.036721539
-0.036309212
-0.035881557
-0.035437416
-0.034975581
-0.034494828
-0.033994
-0.03347202
-0.032927934
-0.032360971
-0.031770647
-0.031156862
-0.030519878
-0.029860228
-0.029178569
-0.028475653
-0.027752409
-0.027009988
-0.026249815
-0.025473589
-0.024683295
-0.023881154
-0.023069566
-0.022251088
-0.021428388
-0.020604137
-0.019780848
-0.018960744
-0.018145677
-0.017337084
-0.016536025
-0.015743263
-0.014959316
-0.014184477
-0.013418857
-0.012662438
-0.011915139
-0.011176867
-0.010447566
-0.009727236
-0.009015911
-0.008313588
-0.007620181
-0.006935551
-0.00625957
-0.005592159
-0.004933272
-0.004282879
-0.003641019
-0.003007979
-0.002384419
-0.001771402
-0.001170337
-0.00058294
-1.12E-05
0.000542612
0.001076132
0.001586895
0.002072425
0.002530232
0.002957831
0.003352843
0.003713162
0.004037117
0.00432354
0.004571774
0.004781629
0.004953296
0.005087212
0.005183966
0.005244247
0.005268826
0.005258532
0.005214227
0.005136766
0.005026965
0.00488561
0.004713502
0.004511508
0.00428062
0.004022016
0.003737048
0.003427141
0.003093655
0.002737799
0.002360603
0.001962925
0.001545476
0.001108839
0.000653521
0.000180048
-0.000310951
-0.000818726
-0.001342443
-0.00188115
-0.002433686
-0.002998647
-0.003574441
-0.004159401
-0.004751866
-0.005350249
-0.005953094
-0.006559045
-0.007166717
-0.007774616
-0.008381187
-0.00898491
-0.00958439
-0.0101784
-0.010765889
-0.011345909
-0.011917557
-0.012479943
-0.013032245
-0.013573774
-0.014104055
-0.014622877
-0.015130323
-0.015626784
-0.016112983
-0.016590027
-0.017059429
-0.017523041
-0.017982891
-0.018440986
-0.01889918
-0.019359129
-0.019822296
-0.020289935
-0.020763017
-0.021242211
-0.021727964
-0.022220554
-0.022720098
-0.023226574
-0.023739839
-0.024259621
-0.024785506
-0.025316942
-0.025853267
-0.026393708
-0.026937431
-0.02748359
-0.028031375
-0.028580034
-0.029128876
-0.029677244
-0.030224465
-0.030769831
-0.031312622
-0.03185216
-0.032387841
-0.032919202
-0.033446014
-0.033968344
-0.034486555
-0.035001196
-0.035512935
-0.036022451
-0.03653039
-0.037037324
-0.037543725
-0.038049936
-0.038556151
-0.039062429
-0.039568763
-0.040075168
-0.040581722
-0.041088581
-0.041595917
-0.042103782
-0.04261208
-0.043120563
-0.043628927
-0.04413683
-0.044643916
-0.045149785
-0.045653917
-0.046155721
-0.046654589
-0.047149938
-0.047641177
-0.048127715
-0.048609015
-0.049084622
-0.0495543
-0.050018113
-0.050476503
-0.05093015
-0.051379871
-0.05182657
-0.052271273
-0.052715205
-0.053159826
-0.053606749
-0.054057509
-0.054513305
-0.054974843
-0.055442382
-0.055915795
-0.056394618
-0.056878105
-0.057365298
-0.057854984
-0.058345616
-0.058835253
-0.059321612
-0.059802223
-0.06027462
-0.060736474
-0.061185677
-0.061620366
-0.06203891
-0.062439874
-0.062821977
-0.063184075
-0.063525259
-0.0638448
-0.064142123
-0.064416699
-0.064667933
-0.064895108
-0.065097332
-0.065273501
-0.065422393
-0.06554269
-0.065632872
-0.065691017
-0.065714493
-0.065699778
-0.065642342
-0.065536648
-0.065376349
-0.065154418
-0.064863369
-0.064495377
-0.06404233
-0.06349583
-0.062847197
-0.062087625
-0.061208285
-0.060200632
-0.05905658
-0.057768635
-0.056329913
-0.054734152
-0.052975744
-0.05104975
-0.048951939
-0.046678882
-0.044228069
-0.041597977
-0.038788069
-0.035798755
-0.032631334
-0.029287918
-0.025771415
-0.022085652
-0.0182356
-0.014227591
-0.010069375
-0.005770024
-0.0013398
0.003209933
0.007866731
0.012617033
0.017446097
0.022337988
0.027275678
0.032241251
0.037216205
0.042181741
0.0471191
0.052009813
0.056835897
0.061579928
0.066225111
0.070755333
0.075155132
0.079409674
0.083504647
0.087426178
0.091160648
0.094694726
0.098015465
0.101110369
0.103967361
0.106574722
0.108921021
0.110995062
0.112785958
0.114283152
0.115476519
0.116356328
0.116913326
0.117138833
0.117024884
0.116564259
0.115750298
0.114576779
0.113037802
0.111127838
0.108841978
0.106176257
0.103127904
0.099695556
0.095879421
0.091681533
0.0871059
0.082158543
0.076847523
0.071182877
0.065176614
0.058842741
0.052197259
0.045258041
0.038044523
0.030577337
0.022877991
0.014968687
0.006872281
-0.001387705
-0.009787121
-0.01830129
-0.026905211
-0.03557374
-0.044281729
-0.053004056
-0.06171564
-0.070391439
-0.079006538
-0.087536268
-0.09595643
-0.104243353
-0.11237397
-0.120325826
-0.128077105
-0.135606661
-0.142894149
-0.14992018
-0.156666517
-0.163116172
-0.169253513
-0.17506434
-0.180535868
-0.185656756
-0.190417036
-0.194808051
-0.198822364
-0.202453867
-0.205697894
-0.208551317
-0.211012587
-0.213081703
-0.214760125
-0.216050714
-0.216957554
-0.217485949
-0.217642412
-0.2174346
-2.17E-01
-0.215962201
-0.214717776
-0.21314925
-0.21126841
-0.209087655
-0.206619754
-0.203877866
-0.200875476
-0.197626337
-0.194144502
-0.19044435
-0.186540589
-0.182448208
-0.178182453
-0.173758805
-0.16919297
-0.164500847
-0.159698308
-0.15480119
-0.149825096
-0.144785419
-0.139697418
-0.134576231
-0.129437014
-0.124294862
-0.11916475
-0.114061475
-0.10899955
-0.103993118
-0.099055804
-0.094200484
-0.089439161
-0.084782839
-0.080241531
-0.075824223
-0.071538895
-0.067392461
-0.063390739
-0.05953845
-0.055839214
-0.052295722
-0.048909869
-0.045682747
-0.042614672
-0.039705165
-0.036953039
-0.034356415
-0.031912774
-0.02961907
-0.027471833
-0.025467278
-0.023601355
-0.021869745
-0.02026788
-0.018790998
-0.01743426
-0.01619288
-0.015062232
-0.014037907
-0.013115668
-0.012291356
-0.011560846
-0.010920031
-0.010364827
-0.009891166
-0.009494984
-0.009172169
-0.008918538
-0.00872982
-0.008601689
-0.008529809
-0.008509832
-0.008537325
-0.008607772
-0.00871662
-0.008859328
-0.009031383
-0.009228295
-0.009445583
-0.009678766
-0.009923374
-0.01017502
-0.010429451
-0.010682593
-0.01093052
-0.011169398
-0.011395426
-0.011604859
-0.011794141
-0.011960048
-0.012099766
-0.012210853
-0.012291187
-0.012338936
-0.01235255
-0.012330777
-0.012272678
-0.01217763
-0.012045307
-0.011875607
-0.011668548
-0.011424148
-0.011142384
-0.010823259
-0.010466878
-0.010073539
-0.009643826
-0.009178714
-0.008679575
-0.008148077
-0.007586015
-0.006995182
-0.00637732
-0.005734143
-0.005067363
-0.004378668
-0.003669683
-0.002941937
-0.002196863
-0.001435789
-0.000659947
0.000129439
0.000930984
0.001743021
0.00256362
0.003390699
0.004222122
0.005055794
0.005889744
0.006722152
0.007551332
0.008375695
0.009193759
0.010004203
0.010805925
0.011598097
0.012380197
0.01315206
0.01391386
0.014665985
0.015408901
0.016143097
0.016869109
0.017587543
0.018299028
0.019004194
0.019703634
0.020397916
0.021087555
0.021773027
0.022454772
0.023133261
0.0238091
0.024483168
0.025156666
0.025831057
0.026507962
0.027189104
0.02787628
0.028571304
0.029275933
0.029991791
0.030720348
0.03146293
0.032220744
0.032994915
0.03378661
0.034597185
0.035428308
0.036282063
0.037160847
0.03806721
0.039003622
0.039972268
0.040974963
0.042013109
0.043087792
0.044199906
0.04535025
0.046539567
0.047768548
0.049037803
0.050347883
0.051699232
0.053092163
0.054526906
0.05600369
0.057522777
0.059084453
0.060689002
0.062336683
0.064027645
0.06576179
0.067538746
0.069357805
0.071217962
0.073117971
0.075056389
0.077031672
0.079042211
0.081086464
0.083162934
0.085270338
0.087407567
0.089573666
0.091767691
0.093988582
0.096235089
0.098505802
0.10079921
0.103113763
0.105447918
0.107800148
0.110168919
0.112552665
0.114949778
0.11735858
0.119777285
0.122203946
0.124636509
0.12707293
0.129511148
0.131948948
0.134383976
0.136813745
0.139235631
0.141646862
0.144044533
0.146425679
0.14878729
0.151126415
0.153440177
0.155725807
0.15798074
0.160202652
0.162389532
0.164539725
0.16665177
0.168724328
0.170756102
0.172745809
0.174692139
0.176593885
0.178449959
0.180259272
0.182020813
0.183733493
0.185396224
0.187007785
0.188566923
0.190072238
0.19152227
0.192915574
0.194250673
0.195526138
0.196740568
0.197892472
0.198980197
0.200001895
0.200955495
0.201838732
0.202649191
0.203384429
0.204041973
0.204619482
0.205114737
0.205525741
0.205850869
0.20608893
0.206239074
0.206300855
0.206274047
0.206158757
0.205955446
0.205664888
0.205288202
0.204826728
0.204282045
0.203655779
0.202949509
0.202164695
0.201302558
0.200364009
0.199349687
0.198260069
0.197095677
0.195857316
0.194546044
0.193163142
0.19171001
0.190188125
0.188598961
0.186943948
0.185224459
0.183441773
0.181597233
0.179692194
0.177728146
0.175706685
0.173629597
0.17149888
0.169316918
0.167086482
0.164810702
0.162492901
0.160136431
0.157744527
0.155320257
0.152866587
0.150386363
0.147882387
0.145357341
0.142813757
0.140253991
0.137680158
0.135094196
0.132497966
0.129893184
0.127281502
0.124664478
0.122043692
0.119420663
0.116796821
0.114173479
0.111551791
0.108932689
0.106316887
0.10370484
0.101096809
0.098492928
0.095893182
0.093297504
0.090705819
0.088118151
0.085534655
0.082955733
0.080381945
0.077813961
0.075252436
0.072697982
0.070151143
0.067612372
0.065082125
0.062560871
0.060049169
0.057547726
0.055057351
0.052578859
0.050112996
0.047660436
0.045221828
0.042797819
0.040389117
0.037996493
0.035620749
0.033262629
0.030922674
0.028601142
0.026297951
0.024012715
0.021744866
0.019493744
0.01725865
0.015038882
0.012833765
0.010642651
0.008464912
0.006299967
0.004147379
0.002006951
-0.000121182
-0.002236542
-0.004338342
-0.006425624
-0.008497385
-0.010552602
-0.012590149
-0.014608736
-0.01660689
-0.018582977
-0.02053524
-0.022461822
-0.024360811
-0.026230246
-0.028068108
-0.029872343
-0.031640917
-0.03337194
-0.035063781
-0.036715128
-0.038324948
-0.039892443
-0.041417029
-0.042898417
-0.044336647
-0.045732114
-0.047085501
-0.048397768
-0.049670074
-0.050903715
-0.052099966
-0.053259984
-0.05438472
-0.055474922
-0.056531176
-0.057553921
-0.058543541
-0.059500456
-0.060425218
-0.061318461
-0.062180795
-0.063012779
-0.063814893
-0.064587608
-0.065331407
-0.066046745
-0.066733994
-0.067393489
-0.068025514
-0.068630345
-0.069208264
-0.069759659
-0.070285149
-0.070785739
-0.071262822
-0.071718164
-0.072153732
-0.072571568
-0.072973669
-0.073361993
-0.073738448
-0.074104927
-0.074463218
-0.074814916
-0.075161248
-0.075503029
-0.075840607
-0.076173879
-0.076502338
-0.076825082
-0.07714086
-0.077448115
-0.077745102
-0.078029983
-0.078300886
-0.078555837
-0.078792788
-0.079009689
-0.079204619
-0.079375893
-0.079522088
-0.079641923
-0.079734191
-0.079797685
-0.079831287
-0.079834074
-0.079805404
-0.079744928
-0.079652585
-0.079528689
-0.079373971
-0.079189643
-0.078977279
-0.078738719
-0.078475982
-0.078191124
-0.077886179
-0.07756307
-0.077223592
-0.076869458
-0.076502331
-0.076123804
-0.075735442
-0.075338766
-0.074935265
-0.074526221
-0.074112646
-0.073695228
-0.073274352
-0.072850212
-0.072422899
-0.071992442
-0.071558766
-0.07112167
-0.070680842
-0.070235871
-0.069786303
-0.069331713
-0.068871856
-0.068406768
-0.067936756
-0.067462377
-0.066984437
-0.066503972
-0.066022187
-0.065540396
-0.06505996
-0.064582311
-0.064108916
-0.063641205
-0.063180491
-0.062727869
-0.062284227
-0.061850242
-0.061426546
-0.061013792
-0.060612664
-0.060223807
-0.059847694
-0.059484545
-0.059134353
-0.058796901
-0.058471829
-0.05815861
-0.057856534
-0.057564672
-0.057281934
-0.057007119
-0.056738943
-0.05647599
-0.056216642
-0.05595915
-0.055701815
-0.055443145
-0.055181891
-0.054917019
-0.054647725
-0.054373484
-0.054094084
-0.053809628
-0.053520508
-0.05322732
-0.052930802
-0.052631699
-0.052330621
-0.0520279
-0.051723544
-0.051417287
-0.051108673
-0.050797202
-0.050482426
-0.050164014
-0.049841661
-0.049515042
-0.049183752
-0.04884734
-0.048505414
-0.048157733
-0.047804214
-0.047444932
-0.047080092
-0.046709981
-0.046334855
-0.045954879
-0.045570206
-0.045181088
-0.044787984
-0.044391599
-0.043992896
-0.043593094
-0.04319365
-0.042796217
-0.042402558
-0.042014468
-0.041633669
-0.041261729
-0.040899955
-0.04054942
-0.040210959
-0.03988513
-0.039572202
-0.039272118
-0.038984556
-0.038708977
-0.038444649
-0.038190696
-0.037946064
-0.037709471
-0.037479367
-0.03725389
-0.037030891
-0.036807943
-0.036582354
-0.036351215
-0.036111474
-0.035860028
-0.035593759
-0.035309643
-0.03500488
-0.034677006
-0.034323961
-0.033944167
-0.033536572
-0.033100624
-0.032636248
-0.032143839
-0.031624295
-0.031079032
-0.030509895
-0.029919002
-0.029308509
-0.028680369
-0.028036239
-0.027377481
-0.026705252
-0.026020572
-0.025324402
-0.024617743
-0.023901634
-0.023177132
-0.022445256
-0.02170703
-0.020963563
-0.020216117
-0.019466149
-0.01871532
-0.017965468
-0.017218474
-0.01647616
-0.015740214
-0.015012213
-0.014293694
-0.013586274
-0.012891748
-0.012212061
-0.01154923
-0.010905266
-0.010282143
-0.009681775
-0.009105998
-0.008556562
-0.00803516
-0.007543458
-0.007083037
-0.006655166
-0.006260554
-0.005899242
-0.005570676
-0.005273826
-0.005007321
-0.004769547
-0.004558695
-0.004372752
-0.004209531
-0.004066751
-0.003942149
-0.003833576
-0.00373908
-0.003656946
-0.003585713
-0.003524171
-0.003471246
-0.003425805
-0.00338653
-0.003351988
-0.00332078
-0.003291674
-0.003263674
-0.003236067
-0.003208437
-0.003180634
-0.003152756
-0.003125209
-0.003098782
-0.003074618
-0.003054114
-0.003038845
-0.003030496
-0.003030737
-0.003041105
-0.003062969
-0.003097576
-0.003146128
-0.003209801
-0.003289732
-0.00338698
-0.003502484
-0.003637011
-0.003791127
-0.00396524
-0.004159695
-0.004374805
-0.004610764
-0.004867576
-0.005145014
-0.005442605
-0.005759582
-0.006094895
-0.00644728
-0.006815344
-0.007197629
-0.007592686
-0.007999152
-0.008415779
-0.008841404
-0.009274899
-0.009715166
-0.010161174
-0.010611971
-0.011066647
-0.011524265
-0.011983785
-0.012444023
-0.012903624
-0.013361103
-0.013814946
-0.014263729
-0.014706199
-0.015141251
-0.015567891
-0.015985219
-0.016392451
-0.01678895
-0.01717424
-0.017547982
-0.017909944
-0.018259989
-0.018598108
-0.018924439
-0.01923926
-0.019542964
-0.019836094
-0.020119403
-0.020393906
-0.020660883
-0.020921845
-0.021178486
-0.021432608
-0.021686051
-0.021940647
-0.022198156
-0.022460233
-0.022728413
-0.023004057
-0.023288276
-0.023581846
-0.023885222
-0.024198633
-0.024522185
-0.024855979
-0.02520017
-0.025555002
-0.025920793
-0.026297938
-0.026686827
-0.027087783
-0.027501054
-0.027926857
-0.028365415
-0.028816937
-0.029281558
-0.029759271
-0.030249828
-0.0307527
-0.031267151
-0.031792451
-0.032328039
-0.032873593
-0.033429001
-0.033994328
-0.034569845
-0.035155989
-0.035753336
-0.03636251
-0.03698412
-0.037618686
-0.038266573
-0.038927894
-0.039602432
-0.040289596
-0.040988423
-0.041697614
-0.042415667
-0.043141026
-0.043872148
-0.04460746
-0.045345277
-0.046083864
-0.046821572
-0.047556873
-0.04828836
-0.049014721
-0.049734782
-0.050447475
-0.051151775
-0.051846631
-0.052530907
-0.053203464
-0.053863239
-0.054509349
-0.055141088
-0.055757932
-0.05635957
-0.056945901
-0.057516996
-0.058073085
-0.058614459
-0.059141334
-0.059653774
-0.060151592
-0.060634281
-0.061100956
-0.061550334
-0.061980814
-0.062390603
-0.062777862
-0.063140832
-0.063477948
-0.06378793
-0.064069763
-0.064322703
-0.064546272
-0.064740106
-0.064903766
-0.065036602
-0.06513764
-0.065205559
-0.065238699
-0.065234996
-0.06519182
-0.065105952
-0.064973645
-0.06479083
-0.064553283
-0.064256653
-0.063896477
-0.063468188
-0.062967122
-0.062388558
-0.061727811
-0.060980171
-0.060140856
-0.05920491
-0.058167167
-0.057022262
-0.055764716
-0.054389153
-0.052890491
-0.051264092
-0.049505811
-0.047611978
-0.045579374
-0.043405239
-0.041087277
-0.038623616
-0.036012746
-0.033253588
-0.030345587
-0.027288817
-0.024084017
-0.020732682
-0.017237136
-0.013600554
-0.009826974
-0.005921377
-0.001889876
0.002260094
0.006519654
0.010878444
0.015324639
0.019844998
0.02442497
0.029048877
0.033700112
0.038361367
0.043014891
0.047642928
0.052228142
0.056753971
0.061204731
0.065565549
0.069822252
0.073961236
0.07796935
0.081833936
0.085542828
0.08908435
0.092447273
0.095620841
0.098594762
0.101359159
0.103904448
0.106221221
0.108300105
0.110131711
0.111706607
0.113015406
0.114048757
0.114797339
0.115251839
0.115402982
0.115241542
0.11475835
0.113944262
0.112790219
0.111287296
0.109427042
0.10720183
0.104605295
0.101632759
0.0982816
0.094551519
0.090444595
0.085965239
0.081120059
0.075917795
0.070369221
0.064486936
0.05828524
0.051780105
0.04498915
0.037931576
0.030627998
0.023100218
0.015371014
0.007463979
-0.00059654
-0.008785461
-0.017077047
-0.025445089
-0.033863172
-0.042304955
-0.050744377
-0.059155822
-0.067514263
-0.075795397
-0.083975725
-0.092032552
-0.099944085
-0.107689418
-0.115248673
-0.122603051
-0.129734829
-0.136627257
-0.143264532
-0.149631619
-0.155714452
-0.161499843
-0.166975722
-0.172131062
-0.176956028
-0.181441933
-1.86E-01
-0.189367473
-0.192795232
-0.195860103
-0.198558748
-0.200888917
-0.202849552
-0.204440847
-0.205664158
-0.206522033
-0.207018167
-0.207157299
-0.206945255
-0.206389055
-0.205496937
-0.204278246
-0.202743262
-0.200903103
-0.198769689
-0.196355611
-0.193674177
-0.190739289
-0.187565342
-0.184167221
-0.180560052
-0.176759139
-0.172779873
-0.168637589
-0.16434747
-0.159924567
-0.155383706
-0.15073964
-0.146006927
-0.141199946
-0.136332721
-0.131418929
-0.126471877
-0.121504523
-0.116529524
-0.111559272
-0.10660585
-0.101680897
-0.096795537
-0.091960214
-0.087184623
-0.082477763
-0.077848032
-0.073303439
-0.06885162
-0.064499907
-0.060255237
-0.056124121
-0.052112617
-0.048226252
-0.044470053
-0.040848535
-0.037365738
-0.034025207
-0.030829972
-0.027782425
-0.02488425
-0.022136375
-0.019539012
-0.017091723
-0.014793572
-0.01264325
-0.010639124
-0.008779182
-0.007060987
-0.005481695
-0.004038096
-0.002726681
-0.001543711
-0.00048526
0.000452768
0.001274653
0.001984903
0.00258829
0.003089838
0.003494781
0.003808521
0.004036555
0.004184354
0.004257264
0.004260475
0.004199041
0.004077907
0.003901921
0.003675834
0.00340427
0.00309173
0.002742671
0.002361624
0.001953263
0.001522347
0.001073621
0.000611755
0.00014133
-0.000333183
-0.000807459
-0.001277348
-0.001738902
-0.002188383
-0.002622255
-0.003037198
-0.00343014
-0.003798299
-0.004139261
-0.004451051
-0.004732094
-0.00498104
-0.005196652
-0.005377841
-0.00552377
-0.005633945
-0.005708261
-0.005747013
-0.005750864
-0.005720765
-0.005657847
-0.005563327
-0.005438475
-0.005284596
-0.005102974
-0.004894778
-0.004660945
-0.004402106
-0.004118583
-0.003810475
-0.003477787
-0.003120576
-0.002739065
-0.002333594
-0.00190447
-0.001451832
-0.000975631
-0.000475679
4.83E-05
0.00059648
0.001169166
0.001766517
0.002388655
0.00303564
0.003707516
0.004404385
0.005126415
0.00587379
0.006646631
0.007444934
0.008268511
0.009116948
0.009989589
0.010885531
0.011803621
0.012742479
0.013700537
0.014676122
0.015667584
0.016673464
0.017692624
0.018724265
0.019767849
0.020822985
0.021889379
0.02296678
0.024054931
0.025153561
0.026262434
0.027381418
0.028510541
0.029649995
0.03080008
0.031961106
0.033133309
0.034316845
0.035511758
0.036718015
0.037935548
0.039164312
0.040404249
0.041655235
0.042917088
0.044189621
0.045472689
0.046766188
0.048070058
0.049384303
0.05070895
0.052044045
0.053389635
0.054745831
0.056112871
0.057491262
0.058881845
0.060285799
0.061704494
0.063139334
0.064591669
0.066062808
0.067554027
0.069066577
0.070601769
0.072160944
0.073745504
0.075356826
0.076996215
0.078664877
0.080363996
0.082094714
0.083858132
0.085655279
0.087487146
0.08935459
0.091258302
0.093198657
0.095175669
0.097188935
0.099237688
0.101320796
0.103436776
0.10558372
0.107759364
0.109961145
0.112186365
0.114432283
0.116696224
0.118975662
0.121268295
0.123572037
0.12588498
0.128205359
0.130531549
0.132861912
0.135194898
0.137528971
0.139862597
0.142194226
0.144522175
0.146844715
0.149160042
0.15146634
0.153761834
0.156044886
0.15831393
0.160567507
0.162804142
0.165022179
0.167219728
0.169394627
0.171544388
0.173666283
0.175757408
0.177814648
0.179834753
0.181814417
0.183750257
0.185638845
0.187476873
0.189261317
0.190989465
0.192658991
0.194267869
0.195814326
0.197296828
0.198713973
0.200064421
0.201347008
0.202560708
0.203704625
0.204778075
0.205780596
0.206711948
0.207571998
0.208360687
0.209077895
0.209723637
0.210297927
0.210800976
0.211233109
0.21159476
0.211886287
0.212108061
0.212260351
0.212343395
0.212357327
0.212302178
0.212177917
0.211984426
0.211721674
0.211389661
0.210988522
0.210518569
0.209980339
0.209374651
0.208702505
0.207965136
0.207163826
0.206299841
0.205374375
0.204388589
0.20334366
0.202240765
0.201081127
0.199866012
0.198596686
0.197274432
0.195900515
0.194476187
0.193002671
0.191481218
0.189913243
0.188300267
0.186643973
0.184945971
0.183207735
0.181430519
0.179615214
0.177762404
0.175872371
0.173945069
0.171980143
0.169976965
0.16793476
0.16585274
0.163730413
0.161567718
0.159365132
0.157123744
0.154845014
0.15253064
0.150182456
0.147802174
0.145391449
0.142951727
0.140484348
0.137990594
0.135471791
0.132929221
0.130364239
0.127778172
0.125172377
0.122548126
0.119906604
0.117248915
0.114576139
0.111889258
0.109189123
0.106476411
0.103751704
0.101015501
0.098268256
0.095510438
0.09274254
0.089965098
0.0871787
0.084383987
0.081581675
0.078772634
0.075957984
0.073139139
0.070317827
0.067496084
0.064676084
0.061860088
0.05905034
0.056249112
0.053458765
0.050681762
0.047920663
0.045178074
0.042456627
0.039758913
0.037087429
0.034444548
0.03183246
0.029253144
0.026708363
0.024199691
0.021728527
0.019296007
0.016902914
0.014549635
0.012236175
0.009962223
0.00772725
0.005530585
0.003371451
0.001248979
-0.000837778
-0.00288984
-0.004908264
-0.006894087
-0.008848279
-0.010771739
-0.012665337
-0.014529926
-0.016366301
-0.018175181
-0.019957241
-0.021713121
-0.023443388
-0.02514849
-0.026828751
-0.028484356
-0.030115403
-0.031721979
-0.033304203
-0.034862261
-0.036396388
-0.037906874
-0.039393988
-0.040857922
-0.042298749
-0.043716501
-0.045111217
-0.046483051
-0.047832277
-0.049159359
-0.050464883
-0.051749498
-0.05301382
-0.054258436
-0.055483941
-0.056690931
-0.05787994
-0.059051331
-0.060205214
-0.061341409
-0.062459465
-0.063558675
-0.064638056
-0.065696329
-0.066731982
-0.067743339
-0.068728596
-0.069685914
-0.070613451
-0.071509488
-0.072372481
-0.073201142
-0.07399442
-0.074751504
-0.075471707
-0.076154448
-0.07679911
-0.077405043
-0.077971667
-0.078498647
-0.078986004
-0.079434164
-0.079843879
-0.080216102
-0.080551855
-0.080852143
-0.08111795
-0.081350252
-0.08155001
-0.081718177
-0.081855685
-0.081963338
-0.082041733
-0.082091168
-0.082111761
-0.082103498
-0.08206632
-0.082000203
-0.081905186
-0.081781365
-0.081628896
-0.081447981
-0.081238903
-0.081002027
-0.080737866
-0.080447011
-0.080130093
-0.079787739
-0.079420604
-0.079029314
-0.078614503
-0.078176796
-0.077716909
-0.077235602
-0.076733708
-0.076212153
-0.075671993
-0.075114436
-0.074540868
-0.073952831
-0.073351972
-0.072739996
-0.07211861
-0.071489505
-0.070854254
-0.070214368
-0.069571309
-0.068926401
-0.068280861
-0.067635767
-0.066992134
-0.066350907
-0.065712914
-0.065078825
-0.064449184
-0.06382446
-0.063205041
-0.062591232
-0.061983269
-0.061381284
-0.06078532
-0.060195271
-0.059610866
-0.059031639
-0.058456998
-0.057886343
-0.057319179
-0.056755215
-0.056194458
-0.055637166
-0.055083804
-0.054534953
-0.053991295
-0.053453635
-0.052922864
-0.0524
-0.051886078
-0.051382009
-0.050888449
-0.050405782
-0.049934134
-0.049473412
-0.049023345
-0.048583511
-0.048153393
-0.047732368
-0.047319729
-0.046914697
-0.046516467
-0.046124291
-0.045737527
-0.045355648
-0.044978227
-0.044604894
-0.044235185
-0.043868411
-0.043503616
-0.043139685
-0.042775478
-0.042409956
-0.042042263
-0.041671783
-0.041298158
-0.040921342
-0.040541563
-0.040159367
-0.039775554
-0.039391093
-0.039007042
-0.038624462
-0.038244355
-0.037867568
-0.037494764
-0.037126523
-0.036763404
-0.036406018
-0.036055032
-0.035711154
-0.035375051
-0.03504727
-0.034728196
-0.034418061
-0.034116987
-0.033825018
-0.033542093
-0.033268075
-0.03300273
-0.032745838
-0.032497223
-0.032256681
-0.032023974
-0.031798899
-0.031581443
-0.03137188
-0.031170839
-0.030979251
-0.030798245
-0.030629024
-0.030472768
-0.030330615
-0.030203693
-0.030093146
-0.030000111
-0.029925583
-0.029870307
-0.029834731
-0.029819049
-0.02982329
-0.029847339
-0.029890962
-0.02995386
-0.030035669
-0.030135909
-0.030253937
-0.030388987
-0.030540217
-0.030706771
-0.030887796
-0.031082422
-0.031289738
-0.031508762
-0.031738441
-0.031977575
-0.032224819
-0.032478757
-0.032738045
-0.033001523
-0.033268262
-0.033537544
-0.033808868
-0.034081936
-0.034356616
-0.034632884
-0.034910742
-0.035190113
-0.035470761
-0.0357522
-0.036033567
-0.036313549
-0.036590401
-0.036862019
-0.037126061
-0.037380006
-0.037621237
-0.037847064
-0.038054738
-0.038241524
-0.038404733
-0.038541798
-0.038650304
-0.038728032
-0.038772941
-0.038783204
-0.038757179
-0.038693339
-0.03859023
-0.03844646
-0.03826084
-0.038032483
-0.037760936
-0.037446219
-0.037088826
-0.03668971
-0.036250237
-0.035772182
-0.035257712
-0.034709267
-0.034129396
-0.033520531
-0.032884892
-0.032224398
-0.031540655
-0.030834997
-0.030108569
-0.029362382
-0.028597308
-0.027814081
-0.027013358
-0.026195724
-0.025361653
-0.024511488
-0.023645466
-0.022763817
-0.021866877
-0.020955103
-0.02002901
-0.019089088
-0.018135766
-0.017169384
-0.01619019
-0.015198367
-0.014194159
-0.013177984
-0.012150493
-0.011112585
-0.010065443
-0.009010541
-0.007949631
-0.006884728
-0.005818141
-0.004752482
-0.003690647
-0.002635744
-0.00159098
-0.000559577
0.000455288
0.001450535
0.002423213
0.003370464
0.004289439
0.005177251
0.006031055
0.00684823
0.007626506
0.008364018
0.009059297
0.00971122
0.010318933
0.0108818
0.011399412
0.011871628
0.012298614
0.012680843
0.013018992
0.013313737
0.013565562
0.013774678
0.013941025
0.014064306
0.014144049
0.01417968
0.014170567
0.014116017
0.014015279
0.013867571
0.013672193
0.013428682
0.013136988
0.012797561
0.012411342
0.011979662
0.01150413
0.010986509
0.010428606
0.009832283
0.009199591
0.008532859
0.007834718
0.007108056
0.006355932
0.005581489
0.004787912
0.003978398
0.003156138
0.002324314
0.001486103
0.000644675
-0.000196871
-0.001035582
-0.001868749
-0.002693985
-0.003509219
-0.004312625
-0.005102549
-0.005877506
-0.006636223
-0.007377656
-0.008100974
-0.008805545
-0.009490917
-0.010156789
-0.01080294
-0.011429203
-0.012035482
-0.012621786
-0.013188249
-0.013735176
-0.014263063
-0.014772567
-0.015264458
-0.015739601
-0.016198983
-0.016643768
-0.017075328
-0.017495193
-0.017904943
-0.018306123
-0.018700175
-0.019088387
-0.019471858
-0.019851537
-0.020228278
-0.020602878
-0.020976134
-0.021348907
-0.021722153
-0.02209688
-0.022474118
-0.022854876
-0.023240143
-0.023630882
-0.024028065
-0.024432719
-0.024845963
-0.025269017
-0.025703156
-0.026149672
-0.026609864
-0.02708507
-0.02757665
-0.028085917
-0.028614067
-0.029162126
-0.029730938
-0.030321144
-0.030933119
-0.031566974
-0.032222565
-0.032899521
-0.033597298
-0.034315206
-0.035052408
-0.035807852
-0.036580283
-0.037368294
-0.038170416
-0.038985107
-3.98E-02
-0.040645663
-0.041488018
-0.042335901
-0.043187283
-0.044040035
-0.044891994
-0.045740999
-0.046584889
-0.047421437
-0.048248298
-0.049063005
-0.049862988
-0.050645605
-0.051408216
-0.052148253
-0.052863296
-0.0535511
-0.054209605
-0.054836933
-0.055431396
-0.055991542
-0.056516163
-0.057004321
-0.057455339
-0.057868756
-0.058244381
-0.058582302
-0.058882903
-0.059146829
-0.05937488
-0.059568003
-0.059727326
-0.059854176
-0.059950087
-0.060016777
-0.060056113
-0.060070042
-0.060060583
-0.060029753
-0.059979476
-0.059911396
-0.059826646
-0.059725665
-0.059608117
-0.059472982
-0.059318688
-0.059143189
-0.058943994
-0.058718201
-0.058462508
-0.05817315
-0.057845797
-0.057475563
-0.057057057
-0.056584433
-0.056051482
-0.05545165
-0.054778144
-0.054023955
-0.053181849
-0.052244354
-0.051203784
-0.050052326
-0.04878214
-0.047385499
-0.045854926
-0.044183362
-0.042364266
-0.040391631
-0.038260009
-0.035964578
-0.033501271
-0.030866815
-0.028058719
-0.025075233
-0.021915235
-0.018578207
-0.015064273
-0.011374314
-0.007510186
-0.003474958
0.000726899
0.005089396
0.009604953
0.014264377
0.019056899
0.023970231
0.028990619
0.034102883
0.039290495
0.044535719
0.049819827
0.055123378
0.060426611
0.065709874
0.070953913
0.076140068
0.08125028
0.086267173
0.091173984
0.095954522
0.100593008
0.105074003
0.10938222
0.113502495
0.117419727
0.121118896
0.124585196
0.12780416
0.130761668
0.133444056
0.135838062
0.137930989
0.139710814
0.141166061
0.142285764
0.143059522
0.14347744
0.143530235
0.143209115
0.142505661
0.141411781
0.139919713
0.138022214
0.135712981
0.132987127
0.129841417
0.12627469
0.122287847
0.117884062
0.113068633
0.107848935
0.102234334
0.096236102
0.089867346
0.083142944
0.076079458
0.068695098
0.061009582
0.053044003
0.044820748
0.036363427
0.027696835
0.018846838
0.00984013
0.000703948
-0.008534128
-0.017846301
-0.027204724
-0.036581643
-0.045949485
-0.055280935
-0.064548969
-0.073726907
-0.082788512
-0.091708049
-0.100460455
-0.109021381
-0.117367394
-0.125476018
-0.133325845
-0.140896589
-0.148169234
-0.15512614
-0.161751166
-0.168029726
-0.173948854
-0.179497361
-0.184665844
-0.189446688
-0.193833947
-0.197823241
-0.201411694
-0.204597726
-0.207381025
-0.20976235
-0.211743385
-0.213326693
-0.214515656
-0.215314627
-0.215728924
-0.215764925
-0.215430066
-0.214732826
-0.213682666
-0.212289885
-0.210565597
-0.208521634
-0.206170559
-0.203525618
-0.200600803
-0.197410643
-0.193970114
-0.190294474
-0.186399192
-0.182299897
-0.178012356
-0.173552513
-0.168936372
-0.16418007
-0.159299806
-0.154311895
-0.149232715
-0.144078657
-0.138865978
-0.133610666
-0.128328368
-0.123034298
-0.117743067
-0.112468593
-0.10722404
-0.102021836
-0.096873581
-0.09179008
-0.086781435
-0.08185713
-0.077026092
-0.072296649
-0.067676559
-0.063172914
-0.058792133
-0.054539971
-0.050421622
-0.046441704
-0.042604193
-0.038912371
-0.0353688
-0.031975318
-0.028733077
-0.025642643
-0.022704132
-0.019917309
-0.017281625
-0.014796254
-0.012460172
-0.01027222
-0.008231072
-0.006335142
-0.004582512
-0.002970906
-0.001497669
-0.00015971
0.001046536
0.00212511
0.003080467
0.003917378
0.004640816
0.005255863
0.005767644
0.006181317
0.006502132
0.006735474
0.006886829
0.006961763
0.006965934
0.006905087
0.006785031
0.006611589
0.006390572
0.00612777
0.005828973
0.005499955
0.005146379
0.004773661
0.004386887
0.00399079
0.003589725
0.00318767
0.002788233
0.002394676
0.002009926
0.001636595
0.001276998
0.000933168
0.000606912
0.000299928
1.39E-05
-0.000249251
-0.00048775
-0.000699605
-0.000882795
-0.001035251
-0.001154882
-0.001239614
-0.001287429
-0.001296423
-0.001264835
-0.001191064
-0.0010737
-0.000911551
-0.000703682
-0.000449445
-0.000148504
0.000199164
0.000593308
0.001033436
0.0015188
0.002048365
0.002620783
0.003234371
0.003887083
0.004576534
0.005300075
0.006054891
0.006838087
0.007646726
0.008477862
0.009328593
0.010196146
0.011077976
0.011971829
0.012875771
0.013788199
0.014707846
0.015633741
0.016565179
0.017501654
0.018442791
0.019388305
0.020338014
0.021291856
0.02224989
0.023212243
0.024179075
0.025150573
0.026126958
0.027108528
0.028095689
0.029088961
0.030088866
0.031095788
0.032109857
0.033130899
0.034158405
0.035191525
0.036229111
0.037269771
0.038311951
0.039353959
0.040394001
0.041430198
0.042460695
0.04348376
0.044497892
0.045501854
0.046494693
0.047475718
0.048444424
0.049400419
0.050343473
0.051273622
0.052191302
0.053097393
0.053993195
0.054880355
0.055760827
0.056636851
0.057510924
0.058385797
0.059264481
0.060150217
0.061046459
0.061956767
0.062884651
0.063833438
0.064806201
0.065805785
0.066834889
0.067896008
0.068991408
0.070123129
0.071292952
0.072502464
0.073753022
0.075045884
0.076382302
0.077763602
0.079191066
0.080665968
0.082189485
0.083762676
0.08538644
0.087061428
0.088788114
0.090566866
0.092397951
0.094281517
0.096217588
0.098205999
0.100246422
0.102338299
0.10448093
0.106673487
0.108915009
0.111204483
0.113540806
0.115922712
0.118348695
0.120816939
0.123325221
0.125870854
0.128450692
0.131061211
0.133698657
0.136359036
0.139038175
0.141731784
0.144435376
0.147144452
0.149854451
0.152560934
0.15525946
0.157945618
0.160615057
0.163263574
0.165887132
0.168481931
0.17104423
0.173570395
0.176056847
0.178500012
0.180896401
0.183242619
0.185535371
0.187771574
0.189948276
0.192062706
0.194112346
0.196094915
0.198008344
0.199850664
0.201620042
0.203314722
0.204933047
0.206473514
0.207934663
0.209315181
0.210613787
0.211829185
0.212960005
0.214004904
0.214962631
0.215832144
0.216612652
0.217303783
0.217905477
0.218417928
0.218841478
0.219176501
0.219423443
0.219582781
0.219655126
0.219641224
0.219541907
0.219357997
0.219090328
0.218739584
0.218306452
0.217791691
0.217196167
0.216520995
0.215767547
0.214937508
0.214032814
0.213055417
0.212007165
0.210889801
0.209704965
0.208454266
0.207139269
0.205761537
0.204322696
0.202824458
0.201268613
0.199657097
0.197991997
0.196275502
0.194510028
0.192698076
0.190842226
0.188945085
0.187009156
0.185036883
0.183030561
0.18099241
0.178924531
0.176828936
0.174707472
0.172561824
0.170393541
0.16820401
0.165994585
0.163766429
0.161520705
0.15925847
0.156980768
0.154688463
0.15238212
0.150062025
0.147728175
0.145380378
0.143018335
0.140641704
0.138250083
0.135843024
0.13342005
0.130980566
0.128523961
0.126049712
0.123557486
0.121047288
0.118519358
0.115974106
0.113412015
0.11083363
0.108239576
0.105630532
0.103007317
0.100370839
0.09772215
0.095062464
0.092393093
0.089715391
0.087030627
0.084340021
0.081644766
0.078946084
0.076245338
0.073544025
0.070843689
0.068145849
0.06545192
0.062763326
0.060081467
0.057407673
0.054743212
0.052089341
0.04944732
0.046818431
0.044203952
0.041605171
0.039023425
0.036460143
0.033916861
0.031395156
0.028896568
0.026422525
0.02397432
0.021553103
0.019159922
0.016795769
0.014461634
0.012158516
0.009887426
0.007649331
0.005445074
0.00327537
0.001140854
-0.000957873
-0.003020209
-0.005045486
-0.00703293
-0.008981719
-0.010891091
-0.012760471
-0.01458953
-0.016378243
-0.018126898
-0.019836102
-0.021506738
-0.023139916
-0.024736958
-0.026299434
-0.027829178
-0.029328156
-0.030798305
-0.032241389
-0.033658963
-0.03505243
-0.036423068
-0.037772082
-0.039100632
-0.040409878
-0.041700978
-0.042975023
-0.04423302
-0.045475863
-0.046704326
-0.047919083
-0.049120747
-0.050309885
-0.051486976
-0.052652352
-0.053806093
-0.054947928
-0.056077197
-0.057192884
-0.058293726
-0.059378333
-0.060445294
-0.061493307
-0.062521271
-0.063528314
-0.06451375
-0.065476991
-0.0664175
-0.067334816
-0.068228506
-0.069098122
-0.069943137
-0.070762925
-0.071556821
-0.072324224
-0.073064581
-0.073777437
-0.074462458
-0.075119399
-0.075748123
-0.07634861
-0.076920994
-0.077465519
-0.077982441
-0.078471921
-0.078933991
-0.079368606
-0.079775766
-0.080155522
-0.080507994
-0.080833286
-0.081131496
-0.081402764
-0.081647322
-0.081865475
-0.08205758
-0.082224116
-0.082365647
-0.082482874
-0.0825767
-0.082648151
-0.082698338
-0.082728282
-0.082738832
-0.082730547
-0.082703628
-0.082657911
-0.082592949
-0.08250805
-0.082402386
-0.082275048
-0.082125127
-0.081951693
-0.081753813
-0.081530593
-0.081281245
-0.081005178
-0.080702052
-0.08037173
-0.080014229
-0.079629555
-0.079217672
-0.078778423
-0.078311503
-0.077816568
-0.077293336
-0.076741725
-0.076161914
-0.075554393
-0.074920051
-0.074260183
-0.073576473
-0.072870985
-0.072146051
-0.071404248
-0.070648335
-0.069881111
-0.069105312
-0.068323418
-0.067537636
-0.066749901
-0.065961905
-0.065175198
-0.064391226
-0.063611336
-0.062836789
-0.062068749
-0.061308362
-0.060556702
-0.059814692
-0.059083052
-0.058362313
-0.05765285
-0.056954913
-0.056268658
-0.055594131
-0.054931208
-0.054279622
-0.053639092
-0.053009473
-0.052390844
-0.051783439
-0.051187616
-0.050603796
-0.050032422
-0.049473956
-0.04892892
-0.048397943
-0.047881775
-0.047381237
-0.046897102
-0.046429951
-0.045980133
-0.045547795
-0.045133002
-0.044735812
-0.044356283
-0.043994483
-0.043650426
-0.043324001
-0.043014955
-0.042722937
-0.042447567
-0.042188406
-0.041944925
-0.041716404
-0.041501898
-0.041300233
-0.041110028
-0.040929757
-0.040757854
-0.040592849
-0.040433481
-0.040278796
-0.04012819
-0.039981417
-0.039838511
-0.039699692
-0.039565325
-0.039435942
-0.039312266
-0.039195202
-0.039085735
-0.03898479
-0.038893089
-0.038811069
-0.038738888
-0.038676508
-0.038623773
-0.038580514
-0.038546607
-0.038522027
-0.038506839
-0.038501117
-0.038504884
-0.038518094
-0.03854065
-0.038572486
-0.038613576
-0.038663901
-0.038723402
-0.038791895
-0.038869001
-0.038954169
-0.039046753
-0.039146181
-0.039252006
-0.039363932
-0.039481841
-0.03960577
-0.039735872
-0.039872359
-0.040015493
-0.040165551
-0.040322855
-0.040487733
-0.040660512
-0.040841445
-0.041030642
-0.041228008
-0.041433245
-0.041645881
-0.041865233
-0.042090446
-0.042320549
-0.042554509
-0.042791262
-0.043029707
-0.043268658
-0.043506805
-0.04374275
-0.043975051
-0.044202231
-0.044422813
-0.044635333
-0.044838317
-0.045030307
-0.045209877
-0.045375746
-0.045526873
-0.045662563
-0.045782536
-0.045886908
-0.045976173
-0.046051148
-0.046112921
-0.046162803
-0.046202272
-0.04623292
-0.046256322
-0.046273906
-0.046286799
-0.046295807
-0.04630148
-0.046304192
-0.046304207
-0.046301778
-0.046297178
-0.046290677
-0.046282411
-0.046272323
-0.046260245
-0.046245996
-0.0462294
-0.046210296
-0.046188511
-0.046163842
-0.04613607
-0.046104912
-0.046070013
-0.046030931
-0.045987118
-0.045937918
-0.045882627
-0.045820527
-0.045750942
-0.04567327
-0.045586955
-0.04549145
-0.045386203
-0.04527067
-0.045144316
-0.045006599
-0.044856969
-0.044694804
-0.044519383
-0.044329882
-0.044125367
-0.043904815
-0.043667089
-0.043410942
-0.04313501
-0.042837825
-0.042517822
-0.042173337
-0.041802682
-0.041404251
-0.040976685
-0.040518939
-0.040030316
-0.039510515
-0.038959607
-0.038377989
-0.037766267
-0.037125297
-0.036456257
-0.035760649
-0.035040349
-0.03429766
-0.033535324
-0.032756545
-0.031964906
-0.03116429
-0.030358767
-0.029552424
-0.028749216
-0.027952828
-0.02716654
-0.026393089
-0.025634572
-0.024892468
-0.024167696
-0.023460643
-0.022771223
-0.022098929
-0.021442907
-0.020801989
-0.020174706
-0.019559311
-0.01895381
-0.018356059
-0.017763877
-0.017175136
-0.016587861
-0.016000291
-0.015410929
-0.014818517
-0.014222099
-0.013621124
-0.013015544
-0.012405796
-0.011792725
-0.011177488
-0.010561491
-0.009946385
-0.009334039
-0.008726518
-0.00812604
-0.007534921
-0.006955497
-0.006390034
-0.005840638
-0.005309203
-0.004797393
-0.004306649
-0.003838207
-0.003393153
-0.002972485
-0.002577145
-0.002207998
-0.001865849
-0.001551499
-0.001265785
-0.001009539
-0.000783511
-0.000588314
-0.000424433
-0.00029221
-0.000191746
-0.000122757
-8.45E-05
-7.61E-05
-9.65E-05
-0.00014455
-0.000219401
-0.000320155
-0.000445998
-0.000596189
-0.00077006
-0.000967021
-0.001186543
-0.001428137
-0.001691333
-0.001975632
-0.002280391
-0.00260472
-0.002947465
-0.003307262
-0.003682616
-0.004071966
-0.004473745
-0.004886371
-0.005308227
-0.005737683
-0.006173118
-0.006612948
-0.007055684
-0.007500035
-0.007944942
-0.008389565
-0.008833282
-0.009275685
-0.009716546
-0.010155755
-0.010593342
-0.011029543
-0.01146487
-0.011900092
-0.012336192
-0.012774287
-0.013215514
-0.01366092
-0.014111396
-0.014567687
-0.015030429
-0.015500165
-0.015977334
-0.016462199
-0.016954793
-0.017454971
-0.017962458
-0.01847684
-0.018997544
-0.019523891
-0.020055182
-0.020590743
-0.021129936
-0.021672169
-0.022216864
-0.02276348
-0.023311539
-0.023860725
-0.024410922
-0.024962153
-0.025514482
-0.026067942
-0.026622539
-0.027178301
-0.027735347
-0.028293971
-0.028854664
-0.029418157
-0.02998542
-0.030557666
-0.0311363
-0.031722866
-0.032318983
-0.032926269
-0.03354634
-0.034180723
-0.03483079
-0.035497613
-0.036181889
-0.036883906
-0.037603572
-0.038340434
-0.039093725
-0.039862454
-0.040645435
-0.041441258
-0.042248283
-0.043064661
-0.043888435
-0.044717573
-0.04555003
-0.046383716
-0.047216505
-0.048046175
-0.048870325
-0.049686339
-0.050491378
-0.051282514
-0.05205689
-0.052811891
-0.053545225
-0.05425496
-0.054939453
-0.055597339
-0.056227487
-0.056828976
-0.057401095
-0.057943281
-0.058455087
-0.058936141
-0.059386156
-0.059804838
-0.06019181
-0.060546547
-0.06086839
-0.061156619
-0.061410494
-0.061629232
-0.061811998
-0.06195794
-0.062066261
-0.062136274
-0.062167462
-0.062159479
-0.062112104
-6.20E-02
-0.061898578
-0.061732277
-0.061526183
-0.061280128
-0.060993884
-0.060667254
-0.060300089
-0.059892289
-0.059443779
-0.058954481
-0.058424186
-0.057852335
-0.057237796
-0.056578699
-0.055872411
-0.055115536
-0.054303933
-0.053432725
-0.052496295
-0.051488347
-0.050402015
-0.049229942
-0.047964443
-0.046597648
-0.045121714
-0.043528929
-0.041811883
-0.039963547
-0.037977334
-0.035847083
-0.033567131
-0.031132372
-0.028538289
-0.025780935
-0.022856914
-0.019763345
-0.01649786
-0.013058662
-0.009444718
-0.005655995
-0.00169364
0.002439925
0.006740886
0.011203875
0.015821826
0.020585883
0.025485357
0.030507721
0.035638675
0.040862244
0.046161007
0.051516332
0.056908648
0.06231771
0.067722842
0.073103204
0.078438021
0.083706804
0.088889681
0.093967654
0.098922722
0.103737898
0.108397059
0.112884797
0.117186174
0.121286608
0.125171795
0.128827751
0.132240877
0.135397986
0.138286293
0.14089334
0.143206805
0.145214558
0.146904528
0.14826481
0.149283677
0.149949685
0.150251776
0.15017949
0.149722919
0.148872674
0.147619933
0.145956457
0.143874854
0.141368806
0.138433382
0.135065138
0.131262437
0.127025753
0.122357748
0.117263347
0.111749746
0.1058264
0.09950497
0.092799231
0.085724935
0.078299627
0.070542529
0.062474418
0.054117527
0.045495462
0.036633171
0.027556816
0.018293537
0.008871145
-0.000682096
-0.01033763
-0.020066794
-0.029840995
-0.039631862
-0.04941139
-0.059152056
-0.068826869
-0.078409463
-0.087874085
-0.097195603
-0.106349431
-0.11531157
-0.124058627
-0.132567972
-0.140818015
-0.148788288
-0.15645963
-0.163814068
-0.170834824
-0.177506268
-0.183814034
-0.189745083
-0.195287734
-0.200431824
-0.205168739
-0.209491447
-0.213394508
-0.216874003
-0.21992746
-0.2225537
-0.224752828
-0.226526245
-0.227876768
-0.228808671
-0.229327619
-0.229440585
-0.229155719
-0.228482351
-0.22743085
-0.226012692
-0.224240348
-0.222127184
-0.219687358
-0.216935754
-0.213887811
-0.210559428
-0.206966966
-0.203127161
-0.199057072
-0.194774091
-0.19029586
-0.185640082
-0.180824444
-0.175866395
-0.170783177
-0.165591702
-0.16030854
-0.154950038
-0.149532244
-0.144070953
-0.138581589
-0.133079201
-0.127578273
-0.122092724
-0.116635852
-0.11122036
-0.105858363
-0.1005615
-0.09534099
-0.090207644
-0.085171804
-0.080243297
-0.075431377
-0.070744753
-0.066191591
-0.061779436
-0.057515107
-0.053404592
-0.049452975
-0.045664441
-0.042042311
-0.038589004
-0.035306033
-0.032194067
-0.029253021
-0.026482126
-0.023879969
-0.021444559
-0.019173367
-0.01706342
-0.015111391
-0.013313664
-0.011666391
-0.010165525
-0.008806816
-0.007585745
-0.006497497
-0.005537068
-0.004699402
-0.003979409
-0.003371927
-0.002871705
-0.002473422
-0.002171707
-0.001961171
-0.001836431
-0.001792091
-0.001822716
-0.001922808
-0.002086778
-0.002308874
-0.002583133
-0.002903387
-0.003263315
-0.003656521
-0.00407661
-0.004517288
-0.004972399
-0.005435946
-0.005902127
-0.006365411
-0.006820593
-0.00726282
-0.007687627
-0.008091007
-0.008469457
-0.008819906
-0.009139601
-0.00942603
-0.009676936
-0.009890394
-0.010064824
-0.010198977
-0.010291937
-0.010343146
-0.010352382
-0.010319711
-0.010245446
-0.010130126
-0.009974473
-0.00977937
-0.009545859
-0.009275145
-0.008968501
-0.008627096
-0.008251876
-0.007843558
-0.007402694
-0.006929743
-0.006425168
-0.005889519
-0.005323444
-0.004727644
-0.004102841
-0.003449765
-0.002769167
-0.002061857
-0.001328757
-0.000570919
0.000210462
0.001014086
0.001838651
0.002682972
0.003546003
0.004426735
0.005324082
0.006236801
0.007163483
0.008102573
0.00905241
0.010011261
0.010977341
0.011948786
0.012923642
0.013899856
0.014875331
0.015848035
0.016816111
0.017777914
0.018731974
0.019676972
0.020611703
0.021535028
0.022445852
0.023343274
0.024226764
0.025096275
0.025952261
0.026795616
0.02762749
0.028449088
0.029261611
0.030066337
0.030864706
0.031658385
0.032449339
0.0332398
0.034032185
0.034828927
0.035632376
0.036444709
0.03726792
0.038103744
0.038953684
0.039819025
0.040700853
0.041600097
0.042517561
0.043453988
0.044410143
0.045386925
0.046385396
0.047406774
0.048452329
0.049523331
0.050620921
0.051746048
0.052899409
0.05408147
0.055292558
0.056532931
0.057802841
0.059102539
0.060432244
0.06179212
0.063182272
0.064602822
0.066053964
0.067536049
0.069049619
0.070595458
0.072174497
0.073787749
0.075436249
0.077120952
0.078842685
0.080602057
0.082399391
0.084234662
0.086107582
0.088017583
0.089963943
0.091945894
0.093962751
0.096014053
0.098099522
0.100218982
0.102372274
0.104559138
0.106779158
0.109031603
0.111315481
0.113629565
0.115972482
0.118342742
0.120738767
0.123158842
0.125601128
0.128063649
0.13054423
0.133040532
0.135550201
0.138070896
0.140600279
0.14313592
0.145675078
0.148214728
0.150751472
0.153281718
0.155801669
0.158307448
0.160795093
0.163260549
0.165699676
0.168108314
0.170482293
0.172817677
0.175110862
0.177358598
0.179557875
0.181705847
0.183799773
0.18583706
0.187815249
0.189732105
0.191585615
0.193374008
0.195095688
0.196749255
0.198333383
0.199846894
0.201288685
0.202657789
0.203953505
0.205175325
0.206323132
0.207397103
0.208397627
0.20932509
0.210179716
0.210961476
0.211670011
0.212304592
0.21286425
0.213347927
0.213754579
0.214083254
0.214333057
0.21450305
0.214592472
0.214600712
0.214527428
0.214372545
0.214136198
0.213818744
0.21342063
0.212942526
0.212385222
0.211749777
0.211037427
0.210249662
0.209388182
0.208454788
0.207451358
0.206379741
0.205241725
0.204039127
0.202773809
0.201447845
0.200063422
0.198622748
0.197127968
0.195581049
0.193983719
0.192337453
0.190643564
0.188903198
0.187117338
0.18528682
0.183412343
0.181494415
0.179533422
0.177529663
0.175483465
0.173395306
0.171265855
0.169095859
0.166886151
0.164637655
0.162351236
0.160027698
0.157667831
0.155272484
0.152842641
0.150379464
0.147884205
0.14535822
0.142802924
0.140219688
0.137609959
0.13497512
0.132316589
0.129635885
0.126934603
0.124214336
0.121476755
0.118723415
0.115955807
0.113175288
0.110383071
0.107580222
0.104767628
0.101946019
0.099115938
0.096277818
0.093432069
0.090579227
0.087720096
0.084855773
0.08198759
0.079117045
0.076245688
0.073375084
0.070506774
0.067642324
0.064783394
0.061931755
0.059089202
0.056257531
0.053438447
0.050633498
0.047844127
0.045071751
0.0423178
0.039583776
0.03687134
0.034182344
0.031518735
0.028882429
0.026275255
0.023698937
0.021155071
0.018645108
0.016170336
0.013731844
0.011330512
0.008967015
0.006641836
0.004355297
0.002107634
-0.000100893
-0.002269875
-0.004398709
-0.006486612
-0.008532744
-0.010536365
-0.012496924
-0.014414054
-0.016287524
-0.018117191
-0.019902969
-0.021644799
-0.023342671
-0.024996692
-0.026607178
-0.028174721
-0.029700214
-0.031184811
-0.032629855
-0.034036804
-0.035407223
-0.036742847
-0.038045626
-0.039317742
-0.04056162
-0.041779917
-0.042975459
-0.044151168
-0.045309942
-0.046454567
-0.047587622
-0.048711427
-0.049828004
-0.050939057
-0.052045956
-0.053149775
-0.054251317
-0.055351097
-0.056449369
-0.057546124
-0.058641143
-0.059733968
-0.060823865
-0.061909836
-0.062990621
-0.064064734
-0.065130547
-0.066186324
-0.067230262
-0.068260461
-0.069274865
-0.070271216
-0.071247064
-0.072199851
-0.073127024
-0.07402613
-0.074894965
-0.07573162
-0.076534495
-0.077302307
-0.078033991
-0.078728639
-0.079385415
-0.08000353
-0.080582306
-0.081121154
-0.081619568
-0.082077079
-0.082493149
-0.082867257
-0.083198875
-0.083487518
-0.083732776
-0.083934277
-0.08409173
-0.08420489
-0.084273584
-0.084297754
-0.084277518
-0.084213279
-0.084105812
-0.083956309
-0.083766304
-0.083537675
-0.083272442
-0.082972713
-0.082640588
-0.082278252
-0.08188799
-0.081472188
-0.081033275
-0.0805737
-0.080095932
-0.079602435
-0.079095639
-0.078577913
-0.078051642
-0.077519216
-0.07698302
-0.076445304
-0.075908065
-0.075373024
-0.074841686
-0.074315399
-0.07379543
-0.073282965
-0.072779059
-0.072284602
-0.071800262
-0.071326487
-0.070863478
-0.070411265
-0.069969669
-0.0695384
-0.069117092
-0.06870535
-0.068302803
-0.06790904
-0.067523606
-0.067145906
-0.06677518
-0.066410616
-6.61E-02
-0.065697029
-0.065347038
-0.065001383
-0.064660206
-0.064323761
-0.063992314
-0.063666165
-0.063345641
-0.06303107
-0.062722676
-0.062420476
-0.062124263
-0.061833616
-0.061548017
-0.061266884
-0.060989629
-0.060715642
-0.06044434
-0.060175132
-0.059907395
-0.059640542
-0.059374053
-0.059107535
-0.058840793
-0.058573831
-0.058306769
-0.058039829
-0.057773326
-0.057507545
-0.057242617
-0.056978438
-0.056714762
-0.056451321
-0.056187931
-0.055924539
-0.055661231
-0.055398211
-0.055135757
-0.054874159
-0.054613724
-0.054354776
-0.054097746
-0.053843174
-0.053591646
-0.053343676
-0.053099636
-0.052859735
-0.052624051
-0.052392539
-0.052165061
-0.051941425
-0.051721312
-0.051504295
-0.051289845
-0.051077366
-0.05086619
-0.050655615
-0.050444938
-0.050233442
-0.050020315
-0.049804665
-0.049585551
-0.049362034
-0.04913326
-0.048898529
-0.048657428
-0.048409853
-0.048156012
-0.047896396
-0.047631785
-0.047363214
-0.047091953
-0.046819426
-0.04654716
-0.04627673
-0.046009682
-0.045747403
-0.04549104
-0.045241497
-0.04499948
-0.044765539
-0.044540085
-0.044323407
-0.044115748
-0.043917358
-0.043728463
-0.043549251
-0.043379828
-0.043220256
-0.043070599
-0.042930994
-0.042801715
-0.042683158
-0.042575788
-0.042479981
-0.042395949
-0.042323764
-0.042263445
-0.042215098
-0.042179026
-0.042155746
-0.042145949
-0.042150419
-0.042169958
-0.042205356
-0.042257383
-0.042326692
-0.042413794
-0.042519059
-0.042642716
-0.042784769
-0.042944897
-0.043122411
-0.043316323
-0.043525379
-0.043748148
-0.043983072
-0.044228543
-0.044482931
-0.044744622
-0.045012075
-0.045283899
-0.045558885
-0.045836043
-0.046114516
-0.046393584
-0.046672635
-0.046951175
-0.047228772
-0.047504969
-0.047779255
-0.048051085
-0.048319958
-0.048585497
-0.048847474
-0.04910586
-0.049360774
-0.049612433
-0.049861114
-0.050107196
-0.050351143
-0.050593454
-0.050834589
-0.051074877
-0.051314421
-0.051553044
-0.051790327
-0.052025706
-0.052258529
-0.052488156
-0.052713964
-0.052935377
-0.053151872
-0.053362925
-0.053567942
-0.053766236
-0.053957049
-0.054139655
-0.054313406
-0.05447777
-0.054632377
-0.054777004
-0.054911509
-0.055035722
-0.055149432
-0.05525247
-0.05534476
-0.055426337
-0.055497345
-0.055557974
-0.055608429
-0.055648878
-0.055679422
-0.055700164
-0.05571124
-0.055712752
-0.055704631
-0.055686466
-0.055657487
-0.05561661
-0.055562578
-0.055494085
-0.05540989
-0.055308841
-0.055189826
-0.05505174
-0.05489352
-0.054714154
-0.054512668
-0.054288071
-0.054039367
-0.053765625
-0.053466007
-0.053139817
-0.052786462
-0.052405383
-0.051995981
-0.051557612
-0.051089682
-0.0505918
-0.050063893
-0.049506295
-0.048919741
-0.048305355
-0.047664661
-0.046999484
-0.046311807
-0.045603648
-0.044877023
-0.044133872
-0.04337595
-0.042604756
-0.041821498
-0.041027147
-0.040222462
-0.039408039
-0.038584385
-0.037751891
-0.036910743
-0.036060765
-0.035201419
-0.034331851
-0.033450987
-0.032557644
-0.031650595
-0.030728679
-0.029790843
-0.028836153
-0.027863784
-0.026873032
-0.025863416
-0.024834828
-0.023787672
-0.022722933
-0.021642216
-0.020547707
-0.019442122
-0.018328534
-0.017210221
-0.016090611
-0.014973235
-0.013861691
-0.012759575
-0.011670397
-0.010597476
-0.009543856
-0.0085123
-0.007505302
-0.006525096
-0.005573677
-0.004652865
-0.003764344
-0.002909664
-0.002090235
-0.001307358
-0.000562256
0.000143859
0.000809693
0.001433794
0.002014542
0.002550208
0.003039109
0.003479784
0.003871096
0.004212169
0.004502237
0.004740546
0.004926333
0.005058858
0.00513746
0.005161606
0.005130915
0.005045163
0.004904312
0.004708541
0.004458316
0.00415451
0.003798512
0.003392258
0.002938176
0.002439083
0.001898058
0.001318327
0.00070322
5.62E-05
-0.000619173
-0.001319088
-0.002039644
-0.002776829
-0.003526618
-0.004285081
-0.005048485
-0.005813348
-0.006576449
-0.007334798
-0.008085588
-0.008826178
-0.009554161
-0.010267498
-0.010964624
-0.011644485
-0.01230654
-0.012950712
-0.013577349
-0.014187206
-0.014781415
-0.015361443
-0.015928993
-0.01648587
-0.017033825
-0.01757437
-0.018108647
-0.018637398
-0.01916099
-0.019679489
-0.020192727
-0.020700399
-0.021202156
-0.021697678
-0.022186721
-0.022669122
-0.023144774
-0.023613615
-0.024075665
-0.024531104
-0.024980307
-0.02542386
-2.59E-02
-0.026297241
-0.026728947
-0.027158674
-0.027587503
-0.028016593
-0.028447181
-0.028880557
-0.02931807
-0.02976111
-0.030211097
-0.030669466
-0.031137617
-0.031616833
-0.032108229
-0.032612711
-0.033130962
-0.033663422
-0.034210335
-0.034771778
-0.0353477
-0.035937905
-0.036541995
-3.72E-02
-0.037789077
-0.038430102
-0.039081175
-0.039740991
-0.040408228
-0.041081585
-0.04175977
-0.042441487
-0.043125488
-0.04381055
-0.044495363
-0.045178458
-0.045858182
-0.046532717
-0.047200169
-0.047858652
-0.048506357
-0.049141627
-0.049763005
-0.050369192
-0.050958987
-0.051531292
-0.052085128
-5.26E-02
-0.053133968
-0.053627513
-0.05409966
-0.054549828
-0.05497732
-0.055381302
-0.05576086
-0.056115065
-0.056443032
-0.05674395
-0.057017043
-0.057261545
-0.057476677
-0.057661604
-0.057815485
-0.057937492
-0.058026865
-0.058082886
-0.05810485
-0.058092106
-0.058043979
-0.057959713
-0.057838429
-0.057679158
-0.057480834
-0.057242312
-0.056962311
-0.056639414
-0.05627206
-0.055858519
-0.055396918
-0.054885253
-0.054321427
-0.053703219
-0.053028144
-0.052293304
-0.051495306
-0.050630312
-0.049694099
-0.048682123
-0.047589589
-0.04641147
-0.045142476
-0.043776967
-0.042308923
-0.040732034
-0.039039809
-0.03722572
-0.035283417
-0.033206958
-0.030990934
-0.028630419
-0.026120879
-0.023458108
-0.020638226
-0.01765772
-0.014513557
-0.011203358
-0.007725568
-0.004079615
-0.000266001
0.003713702
0.007856851
0.012159673
0.016617099
0.021222575
0.025967872
0.030843029
0.035836469
0.0409352
0.046124984
0.051390409
0.056714937
0.062080953
0.06746988
0.072862372
0.078238569
0.083578363
0.088861667
0.094068669
0.099179976
0.104176678
0.10904038
0.113753118
0.118297316
0.12265566
0.126811162
0.130747214
0.134447739
0.137897193
0.141080618
0.143983617
0.146592319
0.148893252
0.150873423
0.152520239
0.153821558
0.154765621
0.155341297
0.155538082
0.155346364
0.15475744
0.153763443
0.152357355
0.150532812
0.148284242
0.145606831
0.142496884
0.138951868
0.134970799
0.130554467
0.125705674
0.120429315
0.114732534
0.108624622
0.102117047
0.095223419
0.087959409
0.080342673
0.072392717
0.064130805
0.055579837
0.046764188
0.037709437
0.028442085
0.01898933
0.009378887
-0.000361198
-0.010202698
-0.02011737
-0.030077141
-0.040054284
-0.050021514
-0.059951916
-0.069818802
-0.079595588
-0.089255825
-0.098773308
-0.108122379
-0.117278077
-0.126216322
-0.134913921
-0.143348679
-0.151499301
-0.159345537
-0.16686821
-0.174049348
-0.180872291
-0.187321857
-0.193384528
-0.19904843
-0.20430328
-0.209140256
-0.213551968
-0.217532367
-0.221076876
-0.224182516
-0.226847962
-0.229073659
-0.230861709
-0.232215837
-0.233141214
-0.233644292
-0.2337327
-0.233415291
-0.232702002
-0.231603786
-0.230132401
-0.228300333
-0.226120532
-0.223606527
-0.220772281
-0.217632294
-0.214201465
-0.210495174
-0.20652923
-0.202319846
-0.197883621
-0.193237558
-0.188398972
-0.183385491
-0.178214937
-0.172905222
-0.167474255
-0.161939949
-0.156320035
-0.150631905
-0.144892439
-0.139117926
-0.133324221
-0.127526686
-0.121740274
-0.115979522
-0.110258631
-0.104591466
-0.098991491
-0.093471795
-0.088044994
-0.082723126
-0.077517495
-0.07243859
-0.06749586
-0.062697679
-0.058051221
-0.053562507
-0.049236476
-0.045077063
-0.041087337
-0.037269611
-0.033625562
-0.030156244
-0.026862025
-0.023742596
-0.020797018
-0.018023843
-0.015421242
-0.012987079
-0.010718931
-0.008614075
-0.0066695
-0.004881921
-0.003247816
-0.001763489
-0.000425134
0.000771143
0.001829338
0.002753518
0.003547776
0.004216259
0.004763259
0.005193292
0.005511129
0.005721795
0.005830558
0.005842946
0.005764808
0.005602319
0.005361914
0.005050139
0.00467356
0.004238722
0.003752151
0.003220374
0.002649985
0.002047645
0.001420036
0.000773778
0.000115364
-0.000548906
-0.001212955
-0.001870933
-0.002517231
-0.003146512
-0.003753717
-0.004334044
-0.004882956
-0.005396293
-0.005870384
-0.006302082
-0.006688718
-0.007028043
-0.007318156
-0.007557455
-0.007744615
-0.007878606
-0.007958734
-0.007984647
-0.007956283
-0.007873782
-0.007737384
-0.007547399
-0.007304246
-0.0070085
-0.006660934
-0.006262548
-0.00581459
-0.005318529
-0.004776002
-0.004188772
-0.003558698
-0.002887676
-0.00217757
-0.00143014
-0.000646999
0.000170328
0.001020268
0.001901082
0.002810832
0.003747387
0.004708424
0.00569139
0.006693474
0.007711656
0.008742811
0.009783811
0.010831561
0.011883004
0.012935131
0.013985025
0.015029936
0.01606736
0.017095139
0.018111594
0.019115567
0.020106368
0.021083616
0.022047114
0.022996761
0.023932509
0.024854418
0.02576277
0.026658146
0.027541384
0.028413525
0.029275702
0.030129073
0.030974792
0.031814035
0.032648049
0.033478238
0.034306236
0.03513385
0.035962906
0.03679508
0.037631843
0.0384744
0.039323684
0.040180348
0.041044839
0.041917477
0.042798493
0.043688066
0.04458629
0.045493223
0.046409007
0.047334
0.048268851
0.04921446
0.050171852
0.051142093
0.052126247
0.053125504
0.054141209
0.055174883
0.056228135
0.057302561
0.058399651
0.059520714
0.060666822
0.061838843
0.0630375
0.064263523
0.065517709
0.066801071
0.068114839
0.069460407
0.070839167
0.072252311
0.07370086
0.075185664
0.076707438
0.078266777
0.079864196
0.081500061
0.083174594
0.08488781
0.086639509
0.088429317
0.090256773
0.092121378
0.094022587
0.095959775
0.097932309
0.099939518
0.101980738
0.104055211
0.106162101
0.10830044
0.110469125
0.112666853
0.114892051
0.117142923
0.119417533
0.121713892
0.124029987
0.126363784
0.12871322
0.131076187
0.133450627
0.13583459
0.138226241
0.140623853
0.143025756
0.145430133
0.147834912
0.150237799
0.15263623
0.155027613
0.157409251
0.159778461
0.162132621
0.164469227
0.166785985
0.169080839
0.17135182
0.173596993
0.17581448
0.178002432
0.180158973
0.182282135
0.184370011
0.186420768
0.188432738
0.190404341
0.192333952
0.194219828
0.196060106
0.197852805
0.199595794
0.201286837
0.202923611
0.20450379
0.20602493
0.207484454
0.208879605
0.210207477
0.211464986
0.212648943
0.213756204
0.214783594
0.215728104
0.216586798
0.21735698
0.218036175
0.218622267
0.219113544
0.219508812
0.219807342
0.220008805
0.220113143
0.220120519
0.220031232
0.219845846
0.219565243
0.219190598
0.218723372
0.218165264
0.217518136
0.216783956
0.215964824
0.215062901
0.214080408
0.21301952
0.211882561
0.210671961
0.209390387
0.20804064
0.206625551
0.205147818
0.203609958
0.202014178
0.200362399
0.198656276
0.196897164
0.195086136
0.193223953
0.19131127
0.189348787
0.187337324
0.185278043
0.18317239
0.181022063
0.17882888
0.176594689
0.174321204
0.172009945
0.169662178
0.167279035
0.164861575
0.16241096
0.159928352
0.157414868
0.154871568
0.152299464
0.149699762
0.147073925
0.144423693
0.141751185
0.139058724
0.136348739
0.13362357
0.130885348
0.128136054
0.125377581
0.122611701
0.119840123
0.117064327
0.114285544
0.111504853
0.108723223
0.105941653
0.103161238
0.10038323
0.097608954
0.0948397
0.092076622
0.089320779
0.086573161
0.083834723
0.081106335
0.078388847
0.07568308
0.072989896
0.070310213
0.067645065
0.064995557
0.062362861
0.059748139
0.057152543
0.054577265
0.052023612
0.049493048
0.04698715
0.044507481
0.042055499
0.039632455
0.037239388
0.034877054
0.032545917
0.03024607
0.02797723
0.025738841
0.023530163
0.021350365
0.019198596
0.017074095
0.014976208
0.012904393
0.010858223
0.008837424
0.006841898
0.004871682
0.002926871
0.001007532
-0.000886355
-0.002754921
-0.004598418
-0.006417269
-0.008212119
-0.009983802
-0.011733221
-0.013461234
-0.015168571
-0.016855771
-0.018523142
-0.020170836
-0.021798991
-0.023407875
-0.024997961
-0.026569936
-0.028124701
-0.029663278
-0.031186758
-0.032696214
-0.034192663
-0.035677038
-0.037150145
-0.038612623
-0.040064894
-0.04150717
-0.042939402
-0.044361271
-0.045772228
-0.047171593
-0.048558593
-0.049932338
-0.051291749
-0.05263548
-0.053961866
-0.055268928
-0.056554507
-0.057816423
-0.059052609
-0.06026119
-0.06144055
-0.062589347
-0.06370645
-0.064790845
-0.0658416
-0.066857897
-0.067839079
-0.068784721
-0.06969472
-0.070569366
-0.07140933
-0.072215468
-0.072988667
-0.073729701
-0.074439242
-0.075117856
-0.075766049
-0.076384217
-0.076972589
-0.077531204
-0.078059934
-0.078558542
-0.079026788
-0.079464532
-0.079871789
-0.080248676
-0.080595307
-0.080911718
-0.081197828
-0.08145348
-0.081678487
-0.081872709
-0.082036078
-0.082168549
-0.082270034
-0.082340322
-0.082378991
-0.08238551
-0.082359314
-0.082299978
-0.082207315
-0.082081422
-0.08192277
-0.081732191
-0.081510857
-0.081260234
-0.080981992
-0.080677927
-0.08034987
-0.079999611
-0.079628833
-0.079238974
-0.078831121
-0.078405999
-0.07796406
-0.077505626
-0.077031046
-0.076540768
-0.076035403
-0.075515553
-0.074981742
-0.074434377
-0.073873825
-0.073300481
-0.072714753
-0.07211712
-0.07150805
-0.070887975
-0.070257276
-0.06961628
-0.068965264
-0.068304546
-0.06763456
-0.066955924
-0.066269457
-0.06557624
-0.06487754
-0.064174831
-0.063469708
-0.06276387
-0.062059119
-0.061357342
-0.060660459
-0.059970316
-0.059288491
-0.058616214
-0.057954408
-0.05730373
-0.056664612
-0.056037232
-0.055421561
-0.054817434
-0.054224655
-0.053642981
-0.053072058
-0.052511331
-0.051960062
-0.051417433
-0.050882623
-0.05035479
-0.049833003
-0.049316242
-0.04880337
-0.048293162
-0.047784328
-0.047275644
-0.046766002
-0.046254411
-0.045739997
-0.04522213
-0.044700522
-0.044175316
-0.043647081
-0.043116841
-0.042586066
-0.042056642
-0.041530792
-0.041010924
-0.040499453
-0.039998636
-0.039510522
-0.03903693
-0.038579542
-0.038139991
-0.037719894
-0.037320834
-0.0369443
-0.036591694
-0.036264326
-0.035963461
-0.035690352
-0.035446271
-0.035232447
-0.035050008
-0.03489992
-0.03478295
-0.034699552
-0.034649812
-0.034633435
-0.034649856
-0.034698367
-0.034778222
-0.034888629
-0.035028718
-0.035197508
-0.03539392
-0.0356168
-0.035864957
-0.036137156
-0.036432102
-0.036748357
-0.037084281
-0.03743808
-0.037807871
-0.038191747
-0.038587771
-0.038993955
-0.039408293
-0.039828699
-0.040253021
-0.040679015
-0.04110444
-0.041527107
-0.041944925
-0.042355902
-0.042758189
-0.043150134
-0.043530349
-0.043897662
-0.044251036
-0.044589452
-0.044911951
-0.045217667
-0.045505926
-0.04577633
-0.046028841
-0.046263851
-0.046482097
-0.046684563
-0.046872415
-0.047046922
-0.047209453
-0.047361348
-0.047503833
-0.047637891
-0.047764149
-0.047882892
-0.047994144
-0.048097748
-0.048193425
-0.048280776
-0.048359293
-0.048428342
-0.04848719
-0.048535079
-0.04857124
-0.048594948
-0.048605524
-0.048602432
-0.048585277
-0.048553925
-0.048508503
-0.04844933
-0.04837678
-0.048291184
-0.048192903
-0.048082452
-0.047960568
-0.047828261
-0.047686804
-0.047537718
-0.04738269
-0.047223497
-0.047061943
-0.046899829
-0.046738874
-0.04658062
-0.046426307
-0.046276804
-0.046132553
-0.045993611
-0.045859743
-0.045730513
-0.045605324
-0.045483403
-0.045363724
-0.045244951
-0.045125466
-0.04500344
-0.04487687
-0.04474365
-0.044601545
-0.044448197
-0.044281106
-0.044097707
-0.043895405
-0.043671627
-0.043423891
-0.043149896
-0.042847659
-0.042515699
-0.042153187
-0.04175996
-0.041336454
-0.040883522
-0.040402308
-0.039894156
-0.039360635
-0.038803533
-0.038224801
-0.037626434
-0.037010331
-0.036378212
-0.035731632
-0.035072017
-0.034400702
-0.033718988
-0.033028174
-0.032329455
-0.031623837
-0.030912023
-0.030194417
-0.029471159
-0.028742198
-0.028007451
-0.027266966
-0.02652091
-0.025769414
-0.025012407
-0.02424958
-0.023480467
-0.022704629
-0.021921828
-0.021132084
-0.020335618
-0.019532816
-0.018724212
-0.017910467
-0.017092332
-0.016270602
-0.015446118
-0.014619814
-0.013792829
-0.012966542
-0.012142488
-0.011322202
-0.010507131
-0.009698619
-0.008897933
-0.00810632
-0.007325113
-0.006555804
-0.005800049
-0.005059612
-0.004336287
-0.003631832
-0.002947966
-0.002286409
-0.001648893
-0.001037171
-0.000453006
0.000101841
0.000625685
0.001116994
0.001574418
0.001996704
0.002382614
0.002730891
0.003040244
0.003309331
0.003536744
0.003721032
0.003860705
0.003954277
0.004000338
0.003997655
0.003945264
0.003842573
0.003689451
0.00348625
0.003233763
0.002933164
0.002585965
0.002193962
0.001759179
0.001283869
0.000770527
0.00022187
-0.000359221
-0.000969796
-0.001606926
-0.002267756
-0.002949476
-0.003649264
-0.004364244
-0.005091442
-0.005827766
-0.00657003
-0.007315057
-0.008059824
-0.008801596
-0.009538013
-0.010267086
-0.010987161
-0.011696844
-0.012394963
-0.01308054
-0.013752809
-0.01441118
-0.015055128
-0.01568405
-0.016297203
-0.016893759
-0.01747294
-0.018034136
-0.018577039
-0.019101694
-0.019608509
-0.020098148
-0.020571405
-0.021029131
-0.021472219
-0.021901572
-0.02231803
-0.022722322
-0.023115031
-0.023496617
-0.023867466
-0.024227925
-0.024578327
-0.024919011
-0.025250336
-0.025572686
-0.025886452
-0.026192116
-0.026490308
-0.026781911
-0.027068114
-0.027350418
-0.027630532
-0.027910225
-0.028191224
-0.028475156
-0.028763507
-0.029057581
-0.029358473
-0.029667106
-0.029984331
-0.030311018
-0.030648123
-0.030996677
-0.031357743
-0.031732362
-0.032121517
-0.032526191
-0.032947432
-0.033386327
-0.033843849
-0.034320712
-0.034817282
-0.03533357
-0.03586923
-0.036423523
-0.036995295
-0.037583049
-0.038185075
-0.038799614
-0.039424997
-0.040059704
-0.040702365
-0.041351747
-0.042006735
-0.042666331
-0.043329623
-0.043995742
-0.044663768
-0.045332629
-0.046001028
-0.046667397
-0.047329918
-0.047986548
-0.048635129
-0.049273483
-0.049899533
-0.050511379
-0.051107276
-0.051685572
-0.052244652
-0.052782916
-0.053298853
-0.053791065
-0.054258294
-0.054699361
-0.055113129
-0.055498496
-0.055854313
-0.056179345
-0.056472261
-0.056731716
-0.056956459
-0.057145443
-0.057297848
-0.057413176
-0.057491265
-0.057532292
-0.057536691
-0.057505067
-0.05743812
-0.057336584
-0.05720114
-0.057032298
-0.056830328
-0.056595176
-0.05632646
-0.056023408
-0.055684879
-0.055309445
-0.054895449
-0.054441016
-0.053943913
-0.053401414
-0.052810289
-0.052166834
-0.051466975
-0.050706301
-0.049880087
-0.048983261
-0.048010439
-0.046955965
-0.045813963
-0.044578362
-0.04324292
-0.041801326
-0.040247343
-0.038574938
-0.036778398
-0.03485233
-0.032791667
-0.030591656
-0.028247964
-0.02575681
-0.023115037
-0.020320069
-0.017369803
-0.014262539
-0.010997027
-0.007572599
-0.003989348
-0.000248296
0.003648439
0.007697464
0.01189397
0.016231678
0.020702852
0.025298335
0.030007621
0.034818906
0.039719112
0.044693924
0.049727958
0.05480497
0.059908044
0.065019786
0.070122488
0.075198315
0.080229335
0.085197583
0.090085074
0.094873831
0.099545941
0.104083739
0.108470008
0.112687968
0.116721265
0.120553799
0.124169774
0.127553761
0.130690813
0.133566469
0.13616693
0.13847895
0.140489936
0.142187789
0.143560857
0.144597948
0.145288497
0.145622671
0.145591408
0.145186394
0.144399837
0.143224448
0.141653225
0.139679626
0.137297824
0.134502947
0.131291419
0.127661303
0.123612516
0.119146802
0.114267662
0.108980298
0.103291623
0.097210512
0.090747938
0.083916947
0.076732606
0.069211908
0.061373763
0.053238872
0.044829607
0.036169864
0.027284974
0.018201532
0.008947192
-0.0004495
-0.009959267
-0.019552307
-0.029198574
-0.038868029
-0.048530802
-0.058157317
-0.067718394
-0.07718537
-0.086530209
-0.095725738
-0.104745775
-0.113565326
-0.122160614
-0.130509213
-0.138589993
-0.146383226
-0.153870612
-0.161035255
-0.167861655
-0.174335852
-0.180445388
-0.186179385
-0.191528469
-0.1964847
-0.201041594
-0.205194116
-0.208938614
-0.212272868
-0.215195939
-0.217708111
-0.219810665
-0.22150594
-0.222797334
-0.223689526
-0.224188358
-0.224300861
-0.22403501
-0.223399714
-0.222404614
-0.221060038
-0.219376951
-0.217367008
-0.215042546
-0.212416574
-0.209502712
-0.2063151
-0.202868327
-0.199177265
-0.195256963
-0.191122591
-0.186789498
-0.182273194
-0.177589342
-0.172753721
-0.167782262
-0.162691131
-0.157496601
-0.152215078
-0.146862984
-0.141456634
-0.136012167
-0.130545244
-0.125071004
-0.119603805
-0.114157282
-0.108744331
-0.103377238
-0.098067783
-0.09282738
-0.087667041
-0.082597241
-0.077627838
-0.072767936
-0.068025902
-0.063409314
-0.058924969
-0.054578915
-0.050376546
-0.046322633
-0.042421408
-0.038676571
-0.035091229
-0.031667829
-0.028408164
-0.025313538
-0.022384845
-0.019622624
-0.01702703
-0.0145978
-0.012334218
-0.01023512
-0.008298908
-0.006523578
-0.004906699
-0.00344537
-0.00213617
-0.000975101
4.25E-05
0.000921875
0.001669115
0.002290883
0.002794434
0.003187443
0.003477862
0.003673808
0.003783454
0.003814894
0.003776041
0.003674568
0.003517848
0.003312904
0.00306643
0.002784866
0.00247444
0.002141186
0.001790945
0.001429332
0.001061676
0.000692961
0.000327791
-2.96E-05
-0.000375336
-0.000705867
-0.00101801
-0.001308943
-0.001576174
-0.001817495
-0.00203089
-0.002214433
-0.002366218
-0.002484371
-0.002567154
-0.00261308
-0.002620976
-0.002589968
-0.002519481
-0.002409265
-0.002259379
-0.00207011
-0.001841867
-0.001575121
-0.001270426
-0.00092847
-0.000550129
-0.00013649
0.00031112
0.000791198
0.001302231
0.001842836
0.002411767
0.003007849
0.003629916
0.004276781
0.004947173
0.005639656
0.006352577
0.007084092
0.007832191
0.008594723
0.009369414
0.010153916
0.010945904
0.011743208
0.012543935
0.013346537
0.014149787
0.014952698
0.015754443
0.016554315
0.017351741
0.018146304
0.018937714
0.019725708
0.020509949
0.021289915
0.022064868
0.022833953
0.023596406
0.024351738
0.025099803
0.025840795
0.026575189
0.02730367
0.028027061
0.028746262
0.029462241
0.030175997
0.030888515
0.031600703
0.032313414
0.033027489
0.03374378
0.034463104
0.035186201
0.035913743
0.036646411
0.037384972
0.038130272
0.038883153
0.039644454
0.040415023
0.041195694
0.04198733
0.042790841
0.043607239
0.04443761
0.045283113
0.046144981
0.047024529
0.047923099
0.048842009
0.049782518
0.050745871
0.051733315
0.052746147
0.053785674
0.054853126
0.055949632
0.057076238
0.058233943
0.059423663
0.060646147
0.061901964
0.063191548
0.064515226
0.065873206
0.067265451
0.068691693
0.070151433
0.071644127
0.073169395
0.07472714
0.076317586
0.077941217
0.079598717
0.081290893
0.083018556
0.084782518
0.08658345
0.088421836
0.09029796
0.092211954
0.094163924
0.09615393
0.098181993
0.100248143
0.102352485
0.104495168
0.106676333
0.108895965
0.111153699
0.113448717
0.115779705
0.118144855
0.120541967
0.122968465
0.125421509
0.127898052
0.130394846
0.132908404
0.13543494
0.137970448
0.140510753
0.143051788
0.145589799
0.148121342
0.150643304
0.153152615
0.155646205
0.158120885
0.160573468
0.163000718
0.165399507
0.167766839
0.170099899
0.172396079
0.174652889
0.176867887
0.179038689
0.181162864
0.183238134
0.185262322
0.187233388
0.189149275
0.191007882
0.192807034
0.194544345
0.196217269
0.197822988
0.199358523
0.200820893
0.202207133
0.203514352
0.204739809
0.205880895
0.206935331
0.207901195
0.208776936
0.209561378
0.210253671
0.210853308
0.211360112
0.211774305
0.212096483
0.21232748
0.212468311
0.212519974
0.21248351
0.212360159
0.212151319
0.211858675
0.211484134
0.211029947
0.210498691
0.209893361
0.209217221
0.208473593
0.207665607
0.206796065
0.205867499
0.204882249
0.203842372
0.20274964
0.201605558
0.20041129
0.199167758
0.197875679
0.196535617
0.195147946
0.19371298
0.192231044
0.190702528
0.189128026
0.187508345
0.185844347
0.184136987
0.182387188
0.180595964
0.178764507
0.176894158
0.174986333
0.173042506
0.171064124
0.16905266
0.167009547
0.164936289
0.162834302
0.160704955
0.158549577
0.156369433
0.154165745
0.151939645
0.149692044
0.147423699
0.145135239
0.142827138
0.140499875
0.138153821
0.13578926
0.133406579
0.131006181
0.128588736
0.126155078
0.123706229
0.121243455
0.118768163
0.11628183
0.113785952
0.111281946
0.108771123
0.106254585
0.103733197
0.101207666
0.098678559
0.096146308
0.093611211
0.091073439
0.088533081
0.08599025
0.083445139
0.080898076
0.078349583
0.075800382
0.073251285
0.070703149
0.068156764
0.065612823
0.063071884
0.060534306
0.058000308
0.055470098
0.052943978
0.050422385
0.047905851
0.045394972
0.042890396
0.040392909
0.03790345
0.035423029
0.032952737
0.0304938
0.028047644
0.025615942
0.023200529
0.020803323
0.018426294
0.01607148
0.013740977
0.011436855
0.009161062
0.006915356
0.004701254
0.002519979
0.000372466
-0.001740564
-0.003818529
-0.005860922
-0.007867263
-0.009837139
-0.011770321
-0.013666891
-0.015527307
-0.017352359
-0.019143052
-0.020900499
-0.022625905
-0.024320599
-0.025986038
-0.027623734
-0.029235085
-0.030821236
-0.032383043
-0.033921182
-0.035436235
-0.036928728
-0.038399089
-0.039847638
-0.041274644
-0.042680334
-0.044064939
-0.045428645
-0.046771597
-0.048093934
-0.049395781
-0.05067727
-0.051938534
-0.053179692
-0.054400686
-0.055601135
-0.056780379
-0.057937603
-0.05907198
-0.060182732
-0.061269131
-0.062330503
-0.063366249
-0.064375907
-0.065359242
-0.066316277
-0.067247301
-0.068152733
-0.069032997
-0.069888458
-0.070719369
-0.071525909
-0.072308205
-0.073066287
-0.073800057
-0.074509233
-0.075193428
-0.075852156
-0.076484926
-0.07709121
-0.07767044
-0.078221999
-0.078745246
-0.079239577
-0.079704404
-0.08013913
-0.080543123
-0.080915637
-0.081255808
-0.081562728
-0.08183559
-0.082073703
-0.08227659
-0.082443878
-0.082575351
-0.082670905
-0.082730502
-0.082754202
-0.082742207
-8.27E-02
-0.082613006
-0.082497083
-0.082347766
-0.082165584
-0.081950985
-0.081704408
-0.081426233
-0.081116803
-0.08077652
-0.080405876
-0.080005512
-0.079576112
-0.079118393
-0.078633085
-0.078120895
-0.077582546
-0.077018797
-0.0764305
-0.075818576
-0.07518404
-0.074527934
-0.07385131
-0.073155276
-0.072441034
-0.071709991
-0.070963725
-0.07020396
-0.069432519
-0.068651356
-0.067862667
-0.067068964
-0.066273086
-0.065478042
-0.064686902
-0.063902646
-0.063128054
-0.062365569
-0.061617296
-6.09E-02
-0.060170114
-0.059473868
-0.058797296
-0.058141325
-0.057506662
-0.05689365
-0.056302205
-0.055731926
-0.055182267
-0.054652639
-0.054142389
-0.053650785
-0.053177033
-0.052720297
-0.052279625
-0.051853877
-0.05144174
-0.051041849
-0.050652921
-0.050273869
-0.049903825
-0.049542166
-0.04918842
-0.048842181
-0.048503079
-0.048170876
-0.047845609
-0.047527581
-0.047217268
-0.046915174
-0.046621662
-0.046336893
-0.046060812
-0.045793202
-0.04553378
-0.045282271
-0.045038477
-0.044802275
-0.044573553
-0.044352181
-0.044138003
-0.043930784
-0.043730207
-0.043535873
-0.04334734
-0.043164171
-0.042985965
-0.042812333
-0.042642795
-0.042476617
-0.042312756
-0.042150013
-0.041987177
-0.041823138
-0.041656863
-0.04148734
-0.041313559
-0.04113457
-0.040949564
-0.04075801
-0.040559761
-0.040355071
-0.040144481
-0.039928585
-0.039707832
-0.039482452
-0.039252412
-0.039017476
-0.038777348
-0.038531799
-0.038280822
-0.038024597
-0.037763394
-0.037497453
-0.037226982
-0.036952231
-0.036673624
-0.036391787
-0.036107436
-0.035821259
-0.035533842
-0.035245635
-0.034956913
-0.034667723
-0.034377914
-0.034087267
-0.033795651
-0.033503182
-0.033210274
-0.032917622
-0.032626223
-0.032337345
-0.032052476
-0.03177318
-0.031500991
-0.031237323
-0.030983415
-0.030740241
-0.030508451
-0.030288449
-0.030080503
-0.029884845
-0.029701686
-0.029531181
-0.029373383
-0.029228207
-0.029095417
-0.028974604
-0.028865106
-0.028766025
-0.028676309
-0.028594822
-0.028520321
-0.028451381
-0.028386382
-0.028323574
-0.028261159
-0.028197348
-0.028130427
-0.028058814
-0.027981061
-0.027895877
-0.027802186
-0.027699251
-0.027586732
-0.027464675
-0.027333478
-0.027193889
-0.027046919
-0.026893662
-0.026735114
-0.026571991
-0.026404664
-0.026233194
-0.026057446
-0.025877176
-0.025692057
-0.025501711
-0.025305739
-0.025103781
-0.024895605
-0.02468113
-0.024460379
-0.024233442
-0.024000484
-0.023761787
-0.023517767
-0.023268903
-0.023015603
-0.022758104
-0.022496492
-0.02223081
-0.021961112
-0.021687455
-0.021409879
-0.021128414
-0.020843113
-0.020554075
-0.020261498
-0.019965727
-0.019667258
-0.019366682
-0.019064562
-0.018761307
-0.018457063
-0.018151691
-0.017844804
-0.017535817
-0.017224032
-0.016908763
-0.016589431
-0.016265554
-0.015936585
-0.01560179
-0.015260276
-0.014911128
-0.014553488
-0.014186617
-0.013809973
-0.013423283
-0.013026512
-0.012619749
-0.012203087
-0.01177661
-0.011340491
-0.010895098
-0.010441033
-0.009979154
-0.00951062
-0.00903687
-0.008559471
-0.008079973
-0.007599853
-0.007120546
-0.006643519
-0.006170308
-0.005702476
-0.005241497
-0.004788653
-0.004344981
-0.003911353
-0.003488593
-0.003077552
-0.0026791
-0.002294072
-0.001923174
-0.001566891
-0.001225426
-0.000898705
-0.000586455
-0.000288354
-4.20E-06
0.000265997
0.000521987
0.000763352
0.00098958
0.001200131
0.001394431
0.00157182
0.00173149
0.001872477
0.001993677
0.002093908
0.002171975
0.002226716
0.002257049
0.002261976
0.002240545
0.002191818
0.002114942
0.002009304
0.001874682
0.001711335
0.001520026
0.001301926
0.001058427
0.00079096
0.000500936
0.000189776
-0.000141089
-0.000490287
-0.00085654
-0.001238648
-0.001635469
-0.002045922
-0.002468979
-0.002903655
-0.003349002
-0.003804098
-0.004268046
-0.004739969
-0.005219039
-0.005704562
-0.006196089
-0.006693476
-0.007196877
-0.007706722
-0.008223692
-0.008748644
-0.009282498
-0.009826179
-0.010380609
-0.010946696
-0.011525261
-0.01211698
-0.012722368
-0.013341789
-0.01397536
-0.014622777
-0.015283197
-0.015955262
-0.016637214
-0.017327037
-0.018022595
-0.018721716
-0.019422278
-0.020122277
-0.020819876
-0.021513468
-0.022201719
-0.022883601
-0.023558334
-0.024225308
-0.02488404
-0.025534166
-0.026175462
-0.02680786
-0.027431551
-0.028047064
-0.028655283
-0.029257404
-0.029854877
-0.030449355
-0.031042624
-0.03163651
-0.032232799
-0.032833096
-0.033438642
-0.034050174
-0.034667909
-0.035291635
-0.035920803
-0.036554616
-0.037192058
-0.037831891
-0.03847263
-0.039112572
-0.039749887
-0.040382709
-0.041009251
-0.041627832
-0.042236861
-0.042834844
-0.043420356
-0.043991964
-0.044548135
-0.045087211
-0.045607515
-0.046107635
-0.046586685
-0.047044404
-0.047481086
-0.047897447
-0.048294391
-0.048672874
-0.049033865
-0.049378436
-0.049707815
-0.050023437
-0.050326932
-0.050620068
-0.050904639
-0.051182311
-0.051454563
-0.051722657
-0.051987667
-0.052250482
-0.052511834
-0.052772272
-0.053032193
-0.053291805
-0.053551104
-0.053809837
-0.054067526
-0.054323509
-0.05457693
-0.054826751
-0.055071741
-0.055310503
-0.05554143
-0.055762693
-0.055972353
-0.056168422
-0.056348946
-0.05651195
-0.056655403
-0.056777135
-0.056874849
-0.056946181
-0.056988716
-0.056999929
-0.056977149
-0.056917503
-0.056817889
-0.056674927
-0.056484926
-0.056243874
-0.055947449
-0.055590943
-0.055169288
-0.054677144
-0.054108966
-0.053459037
-0.052721363
-0.051889636
-0.050957263
-0.049917422
-0.048763197
-0.04748762
-0.046083633
-0.044544078
-0.042861748
-0.041029535
-0.039040584
-0.036888495
-0.034567498
-0.032072596
-0.029399652
-0.026545333
-0.023507116
-0.020283375
-0.01687355
-0.013278351
-0.009499856
-0.00554152
-0.001408165
0.002894009
0.007357407
0.011972987
0.016730176
0.021616869
0.026619552
0.031723488
0.036912855
0.042170875
0.047480002
0.052822147
0.058178853
0.063531518
0.068861477
0.074150085
0.079378732
0.084528849
0.089581989
0.09451995
0.099325031
0.103980161
0.108468935
0.112775445
0.116884209
0.120780177
0.124448769
0.127875835
0.131047502
0.133950174
0.136570558
0.138895586
0.140912622
0.142609477
0.143974572
0.144997135
0.145667285
0.145976067
0.145915568
0.14547883
0.144659698
0.14345254
0.14185217
0.139853686
0.137452692
0.134645432
0.131429151
0.127802223
0.123764373
0.119316868
0.1144628
0.109207243
0.103557445
0.097522929
0.091115519
0.084349371
0.077240795
0.069808155
0.062071607
0.054052819
0.045774594
0.037260614
0.028535241
0.019623414
0.010550518
0.001342247
-0.007975477
-0.017376494
-0.026834385
-0.036322527
-0.045814246
-0.05528298
-0.064702421
-0.074046589
-0.083289988
-0.092407569
-0.101374745
-0.110167436
-0.118762158
-0.127136156
-0.135267541
-0.143135518
-0.150720567
-0.158004478
-0.164970353
-0.171602428
-0.177886233
-0.183808506
-0.189357251
-0.194521874
-0.199293241
-0.20366393
-0.20762828
-0.211182475
-0.214324579
-0.217054382
-0.21937342
-0.221284673
-0.222792462
-0.2239023
-0.22462073
-0.22495535
-0.22491464
-0.224507853
-0.223745063
-0.222637177
-0.221195966
-0.219434008
-0.21736452
-0.215001121
-0.212357506
-0.209447369
-0.206284299
-0.202881858
-0.199253589
-0.195413187
-0.191374525
-0.18715176
-0.182759151
-0.178210974
-0.173521489
-0.168704823
-0.163775086
-0.158746287
-0.153632447
-0.148447514
-0.143205449
-0.137920171
-0.132605582
-0.127275363
-0.121943042
-0.116621882
-0.111324884
-0.10606464
-0.100853309
-0.095702499
-0.09062323
-0.085625932
-0.080720395
-0.075915836
-0.071220867
-0.066643544
-0.062191352
-0.057871144
-0.053689074
-0.049650442
-0.045759581
-0.042019866
-0.038433805
-0.035003148
-0.031729005
-0.028611921
-0.025651941
-0.022848584
-0.020200763
-0.017706793
-0.015364454
-0.013171135
-0.011123964
-0.009219917
-0.007455872
-0.005828631
-0.004334898
-0.002971208
-0.001733892
-0.000619191
0.000376577
0.001256979
0.002025608
0.002686279
0.003243127
0.003700582
0.004063313
0.00433625
0.004524609
0.00463385
0.004669615
0.004637671
0.004543876
0.004394162
0.004194521
0.003950899
0.003669061
0.003354541
0.003012658
0.002648571
0.002267322
0.001873889
0.001473186
0.001070011
0.000668948
0.000274291
-0.000110021
-0.000480479
-0.000834016
-0.001167976
-0.00148006
-0.001768322
-0.002031212
-0.002267633
-0.00247696
-0.002658924
-0.00281336
-0.002939951
-0.003038154
-0.003107305
-0.003146738
-0.003155831
-0.003133991
-0.003080615
-0.002995076
-0.002876701
-0.00272478
-0.002538614
-0.002317589
-0.002061265
-0.0017694
-0.001441969
-0.001079133
-0.000681152
-0.000248286
0.000219202
0.000720914
0.001256163
0.001823913
0.002422761
0.003050905
0.003706085
0.004385582
0.00508626
0.005804607
0.006536809
0.007278907
0.008026999
0.008777427
0.009526904
0.010272654
0.011012489
0.011744814
0.012468543
0.013182976
0.013887716
0.014582609
0.015267715
0.015943313
0.016609913
0.017268214
0.017919047
0.018563308
0.019201951
0.019836025
0.020466693
0.021095265
0.021723226
0.022352213
0.022983922
0.023620043
0.024262287
0.02491251
0.0255727
0.026244847
0.02693074
0.027631842
0.028349234
0.029083626
0.029835358
0.03060448
0.031390928
0.0321947
0.033016
0.0338552
0.034712784
0.035589214
0.036484845
0.037399929
0.038334798
0.039290011
0.040266395
0.041265003
0.042287063
0.043333933
0.044407029
0.045507751
0.046637435
0.047797311
0.048988532
0.050212275
0.051469855
0.052762769
0.054092616
0.055460896
0.056868833
0.058317177
0.059806161
0.061335497
0.062904425
0.064511769
0.06615603
0.067835554
0.069548622
0.07129357
0.073068872
0.074873261
0.076705813
0.078565925
0.080453224
0.08236745
0.084308431
0.086275935
0.088269703
0.090289347
0.092334285
0.094403632
0.096496068
0.098609865
0.100743003
0.102893375
0.105058916
0.107237779
0.109428301
0.111629009
0.113838591
0.116055965
0.118280321
0.120510943
0.122746974
0.124987148
0.12722972
0.129472494
0.131712973
0.133948505
0.136176422
0.138394088
0.140599072
0.142789319
0.144963235
0.147119626
0.14925766
0.15137659
0.153475717
0.155554265
0.15761137
0.159646019
0.161657184
0.163643762
0.165604576
0.16753836
0.169443741
0.171319216
0.173163176
0.174973905
0.176749587
0.178488284
0.180188045
0.181846857
0.183462694
0.185033411
0.186556771
0.188030481
0.189452142
0.190819234
0.192129076
0.193378791
0.19456546
0.195686132
0.196737811
0.197717533
0.198622406
0.199449778
0.200197369
0.200863495
0.20144698
0.201946989
0.202362955
0.202694431
0.20294109
0.203102931
0.203180343
0.203174248
0.203085899
0.202916846
0.202668771
0.20234333
0.201942146
0.201466769
0.20091866
0.200299263
0.19960998
0.198852435
0.198028281
0.197139144
0.196186587
0.195171922
0.194096208
0.192960113
0.191763952
0.19050777
0.18919149
0.187814951
0.186378047
0.184880778
0.183323458
0.181706727
0.180031538
0.178299233
0.176511392
0.174669892
0.172776818
0.170834467
0.168845221
0.166811645
0.164736301
0.162621826
0.160470888
0.158286244
0.156070635
0.153826758
0.151557267
0.149264708
0.146951661
0.144620746
0.142274529
0.139915556
0.137546122
0.135168225
0.132783443
0.130392864
0.12799713
0.125596389
0.123190314
0.120778166
0.118358836
0.115930878
0.113492653
0.111042492
0.108578868
0.106100544
0.103606544
0.101096198
0.098569125
0.096025266
0.093464822
0.090888277
0.088296317
0.08568985
0.083069958
0.080437839
0.077794738
0.075141817
0.072480127
0.069810629
0.067134403
0.064452685
0.061766908
0.059078556
0.056389038
0.053699609
0.051011432
0.048325643
0.04564343
0.042966038
0.0402948
0.037631132
0.03497646
0.032332134
0.029699437
0.027079705
0.024474423
0.021885322
0.019314393
0.016763762
0.014235511
0.011731585
0.009253793
0.006803856
0.004383402
0.001993939
-0.000363181
-0.002686767
-0.004975735
-0.007229052
-0.009445708
-0.011624702
-0.013765046
-0.015865767
-0.017925894
-0.01994442
-0.021920249
-0.023852171
-0.025738951
-0.027579468
-0.029372891
-0.031118806
-0.032817274
-0.034468766
-0.036074039
-0.037634
-0.039149705
-0.040622421
-0.042053647
-0.043445058
-0.044798348
-0.04611516
-0.04739707
-0.048645597
-0.049862314
-0.051048942
-0.052207395
-0.053339746
-0.054448046
-0.055534195
-0.056599945
-0.057646919
-0.058676559
-0.059690069
-0.060688473
-0.061672702
-0.062643729
-0.063602582
-0.064550281
-0.06548775
-0.066415645
-0.067334324
-0.068243816
-0.069143951
-0.070034437
-0.070914946
-0.071785115
-0.072644532
-0.073492728
-0.074329205
-0.075153477
-0.075965077
-0.076763563
-0.077548347
-0.078318626
-0.079073146
-0.079810254
-0.080527909
-0.081223786
-0.081895396
-0.082540177
-0.083155513
-0.083738782
-0.08428739
-0.084798872
-0.085270874
-0.085701205
-0.08608783
-0.086428903
-0.086722761
-0.086967938
-0.08716318
-0.087307416
-0.087399736
-0.087439366
-0.087425768
-0.087358706
-0.087238327
-0.087065183
-0.086840227
-0.086564884
-0.086241104
-0.085871436
-0.085459016
-0.085007504
-0.084520891
-0.084003262
-0.083458453
-0.082889929
-0.082300812
-0.081694037
-0.081072502
-0.080439061
-0.079796456
-0.079147212
-0.078493625
-0.077837646
-0.077180944
-0.076524958
-0.075870954
-0.075220056
-0.074573226
-0.073931262
-0.073294781
-0.072664216
-0.072039865
-0.071421951
-0.070810735
-0.07020659
-0.069610029
-0.069021739
-0.068442591
-0.067873672
-0.067316242
-0.066771612
-0.0662411
-0.06572596
-0.065227389
-0.064746492
-0.064284235
-0.063841313
-0.063418038
-0.063014276
-0.062629573
-0.06226328
-0.061914701
-0.061583076
-0.061267532
-0.060966976
-0.060679957
-0.060404673
-0.060138963
-0.059880413
-0.05962649
-0.059374642
-0.059122335
-0.058867048
-0.058606222
-0.058337253
-0.058057472
-0.057764202
-0.057454892
-0.057127297
-0.05677959
-0.056410406
-0.056018837
-0.055604499
-0.055167533
-0.054708637
-0.054229002
-0.053730179
-0.053213939
-0.052682191
-0.052136939
-0.05158015
-0.051013652
-0.050439127
-0.049858078
-0.049271893
-0.048681878
-0.048089366
-0.047495656
-0.046901934
-0.046309277
-0.045718718
-0.045131326
-0.044548251
-0.043970738
-0.043400083
-0.042837609
-0.042284604
-0.041742302
-0.041211791
-0.040693928
-0.040189348
-0.039698575
-0.039222233
-0.038761254
-0.038316812
-0.037890166
-0.037482467
-0.037094716
-0.036727808
-0.03638253
-0.03605954
-0.03575936
-3.55E-02
-0.035229217
-0.034999818
-0.034794137
-0.034611687
-0.034451682
-0.034313098
-0.034194764
-0.034095384
-0.034013484
-0.033947382
-0.033895154
-0.033854611
-0.033823375
-0.033799004
-0.033779137
-0.033761557
-0.033744179
-0.033724964
-0.033701841
-0.033672698
-0.033635471
-0.033588246
-0.0335293
-0.033457071
-0.033370145
-0.033267234
-0.033147134
-0.033008803
-0.032851476
-0.032674804
-0.032478895
-0.032264169
-0.032031126
-0.031780135
-0.031511273
-0.031224333
-0.030918911
-0.030594593
-0.030251095
-0.029888323
-0.029506374
-0.029105484
-0.028685965
-0.028248208
-0.027792681
-0.027319903
-0.02683045
-0.026325008
-0.025804384
-0.025269471
-0.024721153
-0.024160264
-0.023587596
-0.023004029
-0.022410672
-0.021808919
-0.021200335
-0.020586502
-0.019968918
-0.019348992
-0.018728092
-0.018107628
-0.017489096
-0.016874131
-0.016264511
-0.015662059
-0.015068519
-0.014485429
-0.013914027
-0.013355098
-0.012808871
-0.012275051
-0.011752967
-0.011241704
-0.010740206
-0.010247312
-0.009761815
-0.009282486
-0.00880811
-0.008337498
-0.007869503
-0.007403032
-0.00693706
-0.006470641
-0.00600295
-0.005533291
-0.005061042
-0.004585634
-0.004106633
-0.003623912
-0.003137775
-0.002648971
-0.002158585
-0.001667873
-0.00117812
-0.000690575
-0.0002065
0.000272742
0.000745633
0.001210535
0.00166579
0.002109835
0.002541206
0.002958447
0.003360023
0.003744297
0.004109547
0.004454026
0.004776062
0.005074143
0.005346933
0.005593234
0.005811879
0.006001682
0.00616148
0.00629023
0.006387097
0.006451506
0.00648316
0.006482033
0.006448289
0.006382192
0.006284018
0.006154003
0.005992265
0.005798759
0.005573311
0.005315697
0.00502568
0.004702986
0.004347308
0.003958349
0.003535898
0.003079897
0.002590491
0.00206808
0.001513399
0.00092758
0.000312157
-0.000331033
-0.001000001
-0.001692637
-0.002406603
-0.003139221
-0.003887497
-0.004648312
-0.005418696
-0.006196035
-0.006978101
-0.007762947
-0.008548795
-0.00933395
-0.010116666
-0.010895006
-0.011666831
-0.01242989
-0.013181993
-0.013921139
-0.014645602
-0.015353936
-0.016044924
-0.01671751
-0.017370787
-0.018004032
-0.018616751
-0.019208657
-0.019779617
-0.020329576
-0.020858519
-0.021366505
-0.021853736
-0.022320621
-0.022767838
-0.023196347
-0.02360736
-0.024002234
-0.024382405
-0.024749367
-0.025104629
-0.025449673
-0.025785966
-0.026114978
-0.02643816
-0.026756868
-0.027072288
-0.02738538
-0.027696852
-0.028007247
-0.028317085
-0.028626958
-0.02893756
-0.029249666
-0.029564146
-0.029881969
-0.030204225
-0.030532131
-0.030867061
-0.031210538
-0.031564169
-0.031929523
-0.032307956
-0.03270052
-0.033107951
-0.03353069
-0.033968918
-0.034422643
-0.034891777
-0.035376173
-0.035875611
-0.036389798
-0.036918372
-0.03746089
-0.038016818
-0.038585588
-0.03916664
-0.039759468
-0.04036358
-0.040978368
-0.041602995
-0.042236377
-0.042877235
-0.04352415
-0.04417561
-0.044830106
-0.045486219
-0.046142653
-0.04679824
-0.047451932
-0.0481028
-0.048750002
-0.049392782
-0.050030492
-0.050662566
-0.051288385
-0.05190713
-0.052517727
-0.05311894
-0.053709514
-0.054288324
-0.054854389
-0.055406872
-0.055945057
-0.056468409
-0.056976601
-0.057469498
-0.057947021
-0.058409039
-0.058855265
-0.059285209
-0.059698179
-0.060093299
-0.060469579
-0.060825992
-0.061161503
-0.061475113
-0.061765846
-0.062032778
-0.062275048
-0.062491912
-0.062682815
-0.062847435
-0.062985681
-0.063097663
-0.063183703
-0.063244298
-0.063280024
-0.063291319
-0.063278325
-0.063240774
-0.063178003
-0.063089006
-0.062972397
-0.062826335
-0.062648416
-0.06243562
-0.062184375
-0.061890583
-0.061549634
-0.061156396
-0.060705192
-0.060189847
-0.059603721
-0.058939882
-0.058191307
-0.057351049
-0.056412295
-0.055368368
-0.054212749
-0.052939199
-0.051541872
-0.05001533
-0.048354495
-0.046554707
-0.044611838
-0.042522322
-0.040283058
-0.037891384
-0.035345182
-0.032642964
-0.029783856
-0.026767511
-0.023594012
-0.02026391
-0.0167783
-0.013138922
-0.009348297
-0.005409907
-0.001328364
0.002890463
7.24E-03
0.011709382
0.016290475
0.020971157
0.025739003
0.030580742
0.035482358
0.040429112
0.045405589
0.050395757
0.055383101
0.060350716
0.065281376
0.070157595
0.074961767
0.079676323
0.084283911
8.88E-02
0.093110867
0.097297996
0.10131374
0.105143458
0.108773008
0.112188771
0.115377776
0.118327841
0.121027634
0.123466514
0.125634283
0.127521008
0.129116833
0.130412117
0.131397381
0.132063612
0.132402256
0.1324054
0.132065803
0.131376728
0.130331844
0.128925189
0.127151087
0.125004321
0.12248034
0.119575448
0.11628712
0.112614207
0.10855709
0.104117818
0.099300146
0.094109587
8.86E-02
0.082640931
0.076383166
0.069793306
0.062886372
0.055679187
0.048190184
0.040439352
0.03244815
0.02423932
0.015836656
0.007264742
-0.001451232
-0.010285565
-0.019212101
-0.028204281
-0.037235189
-0.046277702
-0.055304684
-0.064289227
-0.073204882
-0.0820259
-0.090727322
-0.099285096
-0.107676007
-0.115877666
-0.123868428
-0.13162747
-0.139135048
-0.14637284
-0.153324068
-0.159973562
-0.166307598
-0.172313884
-0.177981421
-0.18330057
-0.18826288
-0.192861095
-0.197088972
-0.200941354
-0.204413995
-0.207503617
-0.210207835
-0.212525308
-0.214455828
-0.216000289
-0.217160895
-0.217941061
-0.218345195
-0.218378589
-0.218047202
-0.21735765
-0.216317296
-0.214934289
-0.21321772
-0.211177677
-0.208825156
-0.20617193
-0.203230545
-0.200014174
-0.19653666
-0.192812473
-0.188856691
-0.184685171
-0.180314407
-0.175761297
-0.171042949
-0.166176468
-0.161179036
-0.156067953
-0.150860563
-0.145574167
-0.140225902
-0.13483265
-0.129410908
-0.123976789
-0.118545875
-0.113133237
-0.107753329
-0.102419928
-0.097146116
-0.09194421
-0.086825684
-0.081801184
-0.076880544
-0.072072871
-0.067386582
-0.062829457
-0.058408584
-0.054130409
-0.050000668
-0.046024367
-0.042205736
-0.038548253
-0.035054747
-0.031727515
-0.028568471
-0.025579175
-0.022760907
-0.020114666
-0.017641135
-0.015340593
-0.013212807
-0.011256973
-0.009471704
-0.007855053
-0.006404479
-0.005116756
-0.003987853
-0.003012938
-0.002186506
-0.001502549
-0.00095463
-0.000535856
-0.000238872
-5.59E-05
2.13E-05
1.18E-06
-0.000107627
-0.000296364
-0.00055636
-0.000879165
-0.001256663
-0.001681121
-0.002145175
-0.00264179
-0.003164177
-0.003705762
-0.004260279
-0.004821905
-0.005385282
-0.005945451
-0.006497832
-0.007038276
-0.007563141
-0.008069335
-0.008554315
-0.009016075
-0.009453081
-0.009864196
-0.010248633
-0.010605896
-0.010935645
-0.011237456
-0.011510676
-0.011754384
-0.011967476
-0.012148757
-0.012297019
-0.012411074
-0.012489748
-0.01253191
-0.012536506
-0.012502627
-0.012429569
-0.012316821
-0.012164032
-0.011970961
-0.011737428
-0.011463219
-0.011148006
-0.010791336
-0.01039277
-0.009952091
-0.009469435
-0.008945289
-0.008380441
-0.00777597
-0.007133261
-0.006453955
-0.005739809
-0.004992552
-0.00421385
-0.003405354
-0.002568724
-0.001705652
-0.000817939
9.25E-05
0.001023498
0.001973191
0.002939659
0.003921127
0.004915867
0.005922162
0.006938312
0.007962644
0.008993539
0.010029444
0.011068875
0.012110451
0.013152958
0.014195409
0.01523709
0.016277567
0.017316623
0.018354105
0.019389793
0.020423323
0.021454178
0.022481678
0.023505006
0.024523269
0.025535606
0.026541241
0.027539525
0.028529916
0.029511988
0.030485524
0.031450722
0.032408334
0.033359606
0.034306083
0.035249412
0.036191203
0.037132926
0.038075902
0.039021295
0.039970152
0.040923335
0.041881509
0.042845104
0.043814391
0.044789586
0.045770962
0.046758849
0.04775364
0.048755784
0.049765795
0.050784253
0.051811744
0.052848838
0.053896137
0.05495422
0.056023601
0.057104666
0.058197681
0.059302874
0.060420565
0.061551232
0.062695585
0.063854627
0.065029629
0.066222027
0.067433313
0.068665028
0.069918908
0.071196929
0.072501183
0.073833771
0.07519675
0.076592214
0.078022331
0.079489417
0.080995798
0.082543671
0.08413481
0.08577057
0.08745189
0.089179344
0.090953261
0.092773706
0.094640478
0.096553057
0.098510563
0.10051173
0.102554843
0.10463772
0.106757715
0.108911887
0.111097112
0.113310166
0.115547739
0.117806517
0.120083243
0.122374885
0.124678664
0.126992032
0.12931256
0.131637797
0.133965269
0.136292428
0.138616771
0.140935943
0.143247768
0.145550191
0.14784123
0.150118858
0.152381033
0.154625639
0.156850502
0.159053311
0.161231652
0.163383111
0.165505409
0.167596415
0.16965422
0.171676978
0.173662782
0.175609484
0.177514553
0.179375023
0.181187421
0.182948023
0.184652984
0.186298683
0.187881738
0.189399004
0.190847576
0.19222489
0.193528652
0.194756851
0.195907697
0.196979582
0.197971076
0.198881045
0.199708596
0.200453132
0.201114163
0.20169118
0.202183589
0.202590734
0.202911988
0.203146949
0.203295425
0.203357473
0.203333348
0.203223556
0.203028753
0.202749804
0.202387705
0.201943502
0.201418266
0.200812951
0.200128347
0.199365184
0.198524088
0.197605669
0.196610481
0.195539072
0.194391996
0.193169832
0.191873223
0.190502971
0.189060077
0.187545776
0.185961485
0.184308648
0.182588637
0.180802807
0.17895259
0.177039638
0.175065905
0.17303355
0.170944914
0.168802515
0.1666089
0.164366782
0.162078932
0.159748271
0.157377914
0.154971123
0.152531356
0.150062025
0.147566378
0.145047426
0.142507762
0.139949411
0.137373909
0.134782404
0.132175803
0.129554704
0.126919374
0.124269806
0.121605948
0.118927918
0.116236173
0.113531582
0.110815354
0.108088903
0.105353758
0.102611437
0.099863537
0.097111806
0.094358183
0.091604702
0.088853396
0.086106353
0.083365634
0.080633312
0.077911392
0.07520172
0.072505936
0.069825538
0.06716194
0.064516552

























































































































































































































































































































































































































































































































































































































































































































































































































































































































































































































































































































































































































































































































































































































































































































































































































































































































































































































































































































































































































































































































































































































































































































































































































































































































































































































































































































































































































































































































































































































































































































































































































































































































































































































































































































































































































































































































































































































































































































































































































































































































































































































































































































































































































































































































































































































































































































































































































































































































































































































































































































































































































































































































































































































































































































































































































































































































































































































































































































































































































































































































































































































